0.000000 0.016732 0.016732 -0.066743 -0.000269
0.001000 -0.013799 -0.013799 -0.074009 -0.000276
0.002000 0.002909 0.002909 -0.042535 -0.000256
0.003000 -0.050755 -0.050755 -0.000286 -0.000310
0.004000 -0.055670 -0.055670 0.008716 -0.000281
0.005000 -0.038712 -0.038712 -0.007670 -0.000299
0.006000 -0.074249 -0.074249 -0.023653 -0.000267
0.007000 -0.028724 -0.028724 -0.040649 -0.000288
0.008000 -0.034209 -0.034209 -0.032733 -0.000260
0.009000 -0.043755 -0.043755 -0.073540 -0.000276
0.010000 -0.004520 -0.004520 -0.133045 -0.000267
0.011000 -0.007613 -0.007613 -0.149365 -0.000276
0.012000 0.014013 0.014013 -0.165434 -0.000295
0.013000 0.043053 0.043053 -0.156140 -0.000273
0.014000 0.025863 0.025863 -0.175034 -0.000302
0.015000 0.071715 0.071715 -0.192233 -0.000276
0.016000 0.063003 0.063003 -0.185245 -0.000293
0.017000 0.024030 0.024030 -0.176022 -0.000267
0.018000 0.061012 0.061012 -0.165523 -0.000249
0.019000 0.024392 0.024392 -0.129219 -0.000282
0.020000 0.003801 0.003801 -0.081620 -0.000302
0.021000 0.014831 0.014831 -0.055001 -0.000294
0.022000 -0.047631 -0.047631 -0.042506 -0.000269
0.023000 -0.040697 -0.040697 -0.020472 -0.000294
0.024000 -0.033992 -0.033992 0.044205 -0.000284
0.025000 -0.082078 -0.082078 0.040881 -0.000264
0.026000 -0.031518 -0.031518 0.049765 -0.000283
0.027000 -0.038610 -0.038610 -0.002493 -0.000241
0.028000 -0.051886 -0.051886 -0.023619 -0.000296
0.029000 0.004890 0.004890 -0.057071 -0.000279
0.030000 -0.017093 -0.017093 -0.109526 -0.000270
0.031000 0.025960 0.025960 -0.173017 -0.000256
0.032000 0.067677 0.067677 -0.163910 -0.000298
0.033000 0.012203 0.012203 -0.131546 -0.000249
0.034000 0.063003 0.063003 -0.159312 -0.000267
0.035000 0.062744 0.062744 -0.155414 -0.000308
0.036000 0.026252 0.026252 -0.212469 -0.000276
0.037000 0.057625 0.057625 -0.176889 -0.000260
0.038000 0.015389 0.015389 -0.146389 -0.000283
0.039000 0.000509 0.000509 -0.143481 -0.000268
0.040000 0.034898 0.034898 -0.084642 -0.000257
0.041000 -0.019642 -0.019642 -0.062276 -0.000291
0.042000 -0.014428 -0.014428 -0.068502 -0.000273
0.043000 -0.017316 -0.017316 -0.023651 -0.000240
0.044000 -0.074941 -0.074941 0.006346 -0.000264
0.045000 -0.030265 -0.030265 0.000494 -0.000269
0.046000 -0.039969 -0.039969 0.006412 -0.000285
0.047000 -0.058981 -0.058981 -0.025057 -0.000276
0.048000 -0.005266 -0.005266 -0.029566 -0.000305
0.049000 -0.033858 -0.033858 -0.023746 -0.000252
0.050000 -0.026040 -0.026040 -0.096867 -0.000264
0.051000 0.035710 0.035710 -0.137488 -0.000287
0.052000 -0.009719 -0.009719 -0.159778 -0.000250
0.053000 0.043698 0.043698 -0.200099 -0.000306
0.054000 0.061599 0.061599 -0.138554 -0.000295
0.055000 0.026935 0.026935 -0.153479 -0.000277
0.056000 0.064911 0.064911 -0.177581 -0.000296
0.057000 0.035730 0.035730 -0.143386 -0.000288
0.058000 0.036028 0.036028 -0.130279 -0.000292
0.059000 0.048772 0.048772 -0.106428 -0.000288
0.060000 -0.007360 -0.007360 -0.100373 -0.000276
0.061000 0.000569 0.000569 -0.055604 -0.000280
0.062000 -0.012504 -0.012504 -0.039647 -0.000286
0.063000 -0.058314 -0.058314 -0.035748 -0.000268
0.064000 -0.037306 -0.037306 -0.053487 -0.000268
0.065000 -0.043303 -0.043303 -0.036268 -0.000260
0.066000 -0.058043 -0.058043 -0.017380 -0.000311
0.067000 -0.019004 -0.019004 -0.021061 -0.000249
0.068000 -0.051844 -0.051844 -0.033564 -0.000248
0.069000 -0.032126 -0.032126 -0.055461 -0.000290
0.070000 -0.004062 -0.004062 -0.102961 -0.000301
0.071000 -0.020611 -0.020611 -0.108498 -0.000289
0.072000 0.027037 0.027037 -0.142021 -0.000262
0.073000 0.033296 0.033296 -0.123550 -0.000286
0.074000 0.013258 0.013258 -0.137602 -0.000283
0.075000 0.054435 0.054435 -0.191639 -0.000286
0.076000 0.022676 0.022676 -0.204276 -0.000236
0.077000 0.025881 0.025881 -0.197068 -0.000269
0.078000 0.054861 0.054861 -0.153035 -0.000268
0.079000 -0.005059 -0.005059 -0.124469 -0.000316
0.080000 0.005863 0.005863 -0.094143 -0.000280
0.081000 0.008791 0.008791 -0.032770 -0.000284
0.082000 -0.034044 -0.034044 -0.047426 -0.000256
0.083000 -0.008404 -0.008404 -0.034583 -0.000245
0.084000 -0.039186 -0.039186 -0.013392 -0.000284
0.085000 -0.065363 -0.065363 0.019477 -0.000262
0.086000 -0.006718 -0.006718 0.004564 -0.000287
0.087000 -0.049576 -0.049576 -0.012575 -0.000284
0.088000 -0.039287 -0.039287 -0.017771 -0.000277
0.089000 0.002351 0.002351 -0.027837 -0.000305
0.090000 -0.035902 -0.035902 -0.058187 -0.000288
0.091000 0.009219 0.009219 -0.113058 -0.000268
0.092000 0.026712 0.026712 -0.144038 -0.000292
0.093000 0.007228 0.007228 -0.136010 -0.000262
0.094000 0.078074 0.078074 -0.170529 -0.000272
0.095000 0.044631 0.044631 -0.170968 -0.000283
0.096000 0.033842 0.033842 -0.180733 -0.000270
0.097000 0.066689 0.066689 -0.169159 -0.000243
0.098000 0.012703 0.012703 -0.130471 -0.000307
0.099000 0.006136 0.006136 -0.118504 -0.000278
0.100000 0.027509 0.027509 -0.087530 -0.000309
0.101000 -0.046416 -0.046416 -0.062192 -0.000246
0.102000 -0.010109 -0.010109 -0.050472 -0.000283
0.103000 -0.025760 -0.025760 -0.012663 -0.000273
0.104000 -0.060245 -0.060245 0.003304 -0.000253
0.105000 -0.019443 -0.019443 0.001058 -0.000255
0.106000 -0.057594 -0.057594 0.014433 -0.000297
0.107000 -0.042583 -0.042583 -0.017752 -0.000248
0.108000 -0.007031 -0.007031 -0.039458 -0.000267
0.109000 -0.036634 -0.036634 -0.070498 -0.000276
0.110000 -0.005006 -0.005006 -0.108487 -0.000291
0.111000 0.006706 0.006706 -0.106540 -0.000282
0.112000 -0.008875 -0.008875 -0.140649 -0.000261
0.113000 0.041263 0.041263 -0.179859 -0.000272
0.114000 0.029831 0.029831 -0.178163 -0.000277
0.115000 0.031504 0.031504 -0.211310 -0.000295
0.116000 0.060033 0.060033 -0.189436 -0.000264
0.117000 0.020397 0.020397 -0.167183 -0.000286
0.118000 0.040524 0.040524 -0.133312 -0.000298
0.119000 0.034256 0.034256 -0.117789 -0.000293
0.120000 -0.005867 -0.005867 -0.094199 -0.000266
0.121000 0.006783 0.006783 -0.072736 -0.000267
0.122000 -0.020601 -0.020601 -0.027271 -0.000312
0.123000 -0.042419 -0.042419 -0.024631 -0.000291
0.124000 -0.008978 -0.008978 -0.022238 -0.000283
0.125000 -0.050362 -0.050362 0.001280 -0.000314
0.126000 -0.049163 -0.049163 -0.011495 -0.000280
0.127000 -0.020313 -0.020313 0.004536 -0.000253
0.128000 -0.057116 -0.057116 -0.028860 -0.000305
0.129000 -0.015254 -0.015254 -0.056542 -0.000275
0.130000 -0.015246 -0.015246 -0.067579 -0.000278
0.131000 -0.019161 -0.019161 -0.108440 -0.000247
0.132000 0.041952 0.041952 -0.175180 -0.000257
0.133000 0.021988 0.021988 -0.177629 -0.000315
0.134000 0.034426 0.034426 -0.200623 -0.000262
0.135000 0.054860 0.054860 -0.202128 -0.000270
0.136000 0.010589 0.010589 -0.191164 -0.000280
0.137000 0.039586 0.039586 -0.163532 -0.000245
0.138000 0.044855 0.044855 -0.126752 -0.000289
0.139000 -0.000751 -0.000751 -0.148955 -0.000298
0.140000 0.029806 0.029806 -0.095136 -0.000292
0.141000 -0.009709 -0.009709 -0.042625 -0.000278
0.142000 -0.032041 -0.032041 -0.023501 -0.000274
0.143000 -0.003399 -0.003399 -0.021582 -0.000265
0.144000 -0.049864 -0.049864 -0.015801 -0.000259
0.145000 -0.027865 -0.027865 -0.020843 -0.000292
0.146000 -0.020376 -0.020376 0.013482 -0.000266
0.147000 -0.066995 -0.066995 0.015376 -0.000277
0.148000 -0.014736 -0.014736 -0.058569 -0.000282
0.149000 -0.005148 -0.005148 -0.057018 -0.000267
0.150000 -0.018140 -0.018140 -0.109831 -0.000249
0.151000 0.041628 0.041628 -0.142034 -0.000271
0.152000 0.006106 0.006106 -0.168450 -0.000294
0.153000 0.025223 0.025223 -0.209974 -0.000276
0.154000 0.054397 0.054397 -0.181707 -0.000263
0.155000 0.021250 0.021250 -0.176655 -0.000299
0.156000 0.041671 0.041671 -0.194230 -0.000262
0.157000 0.035718 0.035718 -0.132938 -0.000284
0.158000 0.014711 0.014711 -0.119038 -0.000261
0.159000 0.042998 0.042998 -0.117803 -0.000293
0.160000 0.019566 0.019566 -0.056253 -0.000301
0.161000 -0.009625 -0.009625 -0.058296 -0.000273
0.162000 0.006661 0.006661 -0.013909 -0.000301
0.163000 -0.051019 -0.051019 0.017962 -0.000245
0.164000 -0.036145 -0.036145 0.014369 -0.000280
0.165000 -0.036295 -0.036295 0.016147 -0.000306
0.166000 -0.060380 -0.060380 0.031681 -0.000303
0.167000 -0.009369 -0.009369 -0.003288 -0.000282
0.168000 -0.017129 -0.017129 -0.016494 -0.000271
0.169000 -0.010590 -0.010590 -0.065781 -0.000279
0.170000 0.036082 0.036082 -0.126769 -0.000317
0.171000 0.024702 0.024702 -0.146840 -0.000269
0.172000 0.045869 0.045869 -0.155832 -0.000300
0.173000 0.067884 0.067884 -0.151240 -0.000282
0.174000 0.033129 0.033129 -0.133698 -0.000300
0.175000 0.081178 0.081178 -0.174125 -0.000251
0.176000 0.077081 0.077081 -0.188366 -0.000280
0.177000 0.056623 0.056623 -0.146335 -0.000266
0.178000 0.095827 0.095827 -0.120200 -0.000264
0.179000 0.038563 0.038563 -0.115713 -0.000270
0.180000 0.035084 0.035084 -0.083550 -0.000261
0.181000 0.042804 0.042804 -0.055452 -0.000273
0.182000 -0.017366 -0.017366 0.000111 -0.000279
0.183000 0.005002 0.005002 -0.001161 -0.000298
0.184000 -0.005406 -0.005406 0.025366 -0.000284
0.185000 -0.029054 -0.029054 0.025379 -0.000275
0.186000 0.012624 0.012624 0.024303 -0.000292
0.187000 -0.008930 -0.008930 0.004579 -0.000291
0.188000 -0.009967 -0.009967 -0.039481 -0.000267
0.189000 0.049474 0.049474 -0.058045 -0.000302
0.190000 0.011262 0.011262 -0.086232 -0.000302
0.191000 0.056657 0.056657 -0.119123 -0.000258
0.192000 0.086421 0.086421 -0.129905 -0.000266
0.193000 0.061983 0.061983 -0.161112 -0.000246
0.194000 0.107808 0.107808 -0.206628 -0.000279
0.195000 0.098337 0.098337 -0.192242 -0.000252
0.196000 0.082473 0.082473 -0.210992 -0.000280
0.197000 0.105065 0.105065 -0.201822 -0.000267
0.198000 0.066505 0.066505 -0.171310 -0.000278
0.199000 0.077500 0.077500 -0.152779 -0.000300
0.200000 0.077601 0.077601 -0.069485 -0.000286
0.201000 0.012633 0.012633 -0.020011 -0.000281
0.202000 0.029683 0.029683 -0.034479 -0.000247
0.203000 0.017843 0.017843 0.011630 -0.000297
0.204000 -0.008680 -0.008680 -0.006304 -0.000289
0.205000 0.023875 0.023875 -0.020268 -0.000293
0.206000 -0.005914 -0.005914 -0.024220 -0.000298
0.207000 -0.002542 -0.002542 -0.077110 -0.000226
0.208000 0.031837 0.031837 -0.074143 -0.000273
0.209000 0.004962 0.004962 -0.075974 -0.000280
0.210000 0.044616 0.044616 -0.137177 -0.000288
0.211000 0.050290 0.050290 -0.140050 -0.000266
0.212000 0.027301 0.027301 -0.165848 -0.000288
0.213000 0.078557 0.078557 -0.185728 -0.000289
0.214000 0.055813 0.055813 -0.166665 -0.000312
0.215000 0.063248 0.063248 -0.184476 -0.000279
0.216000 0.098471 0.098471 -0.206114 -0.000278
0.217000 0.045219 0.045219 -0.217247 -0.000266
0.218000 0.042914 0.042914 -0.204841 -0.000286
0.219000 0.040484 0.040484 -0.128206 -0.000280
0.220000 -0.000619 -0.000619 -0.042613 -0.000301
0.221000 0.029584 0.029584 -0.062180 -0.000268
0.222000 -0.001703 -0.001703 -0.062026 -0.000286
0.223000 -0.035105 -0.035105 -0.043965 -0.000270
0.224000 -0.015564 -0.015564 -0.043542 -0.000264
0.225000 -0.065080 -0.065080 -0.004245 -0.000248
0.226000 -0.049504 -0.049504 -0.015732 -0.000268
0.227000 -0.021818 -0.021818 -0.031655 -0.000297
0.228000 -0.060278 -0.060278 -0.046778 -0.000261
0.229000 -0.019616 -0.019616 -0.093189 -0.000307
0.230000 -0.030627 -0.030627 -0.140003 -0.000279
0.231000 -0.026075 -0.026075 -0.153956 -0.000278
0.232000 0.039785 0.039785 -0.170204 -0.000265
0.233000 0.007157 0.007157 -0.178363 -0.000304
0.234000 0.014923 0.014923 -0.168622 -0.000286
0.235000 0.041917 0.041917 -0.181750 -0.000298
0.236000 0.001360 0.001360 -0.160318 -0.000278
0.237000 0.042976 0.042976 -0.188997 -0.000286
0.238000 0.049696 0.049696 -0.132859 -0.000289
0.239000 0.001505 0.001505 -0.116513 -0.000300
0.240000 0.045508 0.045508 -0.086911 -0.000234
0.241000 -0.021883 -0.021883 -0.046765 -0.000297
0.242000 -0.027763 -0.027763 -0.063643 -0.000281
0.243000 0.000502 0.000502 -0.043971 -0.000271
0.244000 -0.059374 -0.059374 -0.040762 -0.000292
0.245000 -0.045705 -0.045705 -0.057611 -0.000268
0.246000 -0.031181 -0.031181 -0.024563 -0.000285
0.247000 -0.054100 -0.054100 -0.036223 -0.000297
0.248000 -0.024481 -0.024481 -0.079349 -0.000279
0.249000 -0.026352 -0.026352 -0.090873 -0.000282
0.250000 -0.026656 -0.026656 -0.125552 -0.000283
0.251000 0.044458 0.044458 -0.125448 -0.000270
0.252000 0.010058 0.010058 -0.139351 -0.000312
0.253000 0.033991 0.033991 -0.204228 -0.000272
0.254000 0.066343 0.066343 -0.194856 -0.000277
0.255000 0.023408 0.023408 -0.194671 -0.000279
0.256000 0.058414 0.058414 -0.213341 -0.000282
0.257000 0.046260 0.046260 -0.180221 -0.000284
0.258000 0.006586 0.006586 -0.166745 -0.000305
0.259000 0.033429 0.033429 -0.141673 -0.000307
0.260000 -0.011863 -0.011863 -0.085889 -0.000249
0.261000 -0.036409 -0.036409 -0.079805 -0.000292
0.262000 -0.006754 -0.006754 -0.066490 -0.000287
0.263000 -0.052295 -0.052295 -0.029704 -0.000252
0.264000 -0.022691 -0.022691 -0.039002 -0.000266
0.265000 -0.031430 -0.031430 -0.018625 -0.000265
0.266000 -0.069703 -0.069703 -0.006952 -0.000274
0.267000 -0.029311 -0.029311 -0.038472 -0.000277
0.268000 -0.042799 -0.042799 -0.051813 -0.000290
0.269000 -0.035506 -0.035506 -0.055122 -0.000277
0.270000 0.006620 0.006620 -0.112129 -0.000295
0.271000 -0.010925 -0.010925 -0.118477 -0.000295
0.272000 0.019999 0.019999 -0.154515 -0.000308
0.273000 0.047078 0.047078 -0.182667 -0.000265
0.274000 0.014928 0.014928 -0.173203 -0.000274
0.275000 0.053465 0.053465 -0.202306 -0.000286
0.276000 0.032978 0.032978 -0.200024 -0.000264
0.277000 -0.009804 -0.009804 -0.190360 -0.000259
0.278000 0.029202 0.029202 -0.164002 -0.000265
0.279000 -0.024772 -0.024772 -0.142809 -0.000287
0.280000 -0.018456 -0.018456 -0.106520 -0.000293
0.281000 -0.024135 -0.024135 -0.046924 -0.000289
0.282000 -0.074283 -0.074283 -0.005339 -0.000291
0.283000 -0.057427 -0.057427 -0.005225 -0.000271
0.284000 -0.077479 -0.077479 -0.038016 -0.000283
0.285000 -0.121513 -0.121513 -0.028338 -0.000304
0.286000 -0.067091 -0.067091 -0.050738 -0.000274
0.287000 -0.104186 -0.104186 -0.064213 -0.000281
0.288000 -0.083732 -0.083732 -0.056947 -0.000284
0.289000 -0.047658 -0.047658 -0.058153 -0.000230
0.290000 -0.077104 -0.077104 -0.135627 -0.000292
0.291000 -0.033237 -0.033237 -0.162588 -0.000283
0.292000 -0.008532 -0.008532 -0.162914 -0.000258
0.293000 -0.034986 -0.034986 -0.186509 -0.000277
0.294000 0.024427 0.024427 -0.216540 -0.000275
0.295000 0.013071 0.013071 -0.214315 -0.000255
0.296000 0.031697 0.031697 -0.248132 -0.000270
0.297000 0.076564 0.076564 -0.237124 -0.000314
0.298000 0.046894 0.046894 -0.223290 -0.000280
0.299000 0.076036 0.076036 -0.250785 -0.000297
0.300000 0.107410 0.107410 -0.176736 -0.000294
0.301000 0.056109 0.056109 -0.134627 -0.000280
0.302000 0.110734 0.110734 -0.124699 -0.000268
0.303000 0.087201 0.087201 -0.110376 -0.000270
0.304000 0.074963 0.074963 -0.139714 -0.000251
0.305000 0.138231 0.138231 -0.160443 -0.000232
0.306000 0.138727 0.138727 -0.130914 -0.000293
0.307000 0.190427 0.190427 -0.158701 -0.000288
0.308000 0.247636 0.247636 -0.165102 -0.000280
0.309000 0.268148 0.268148 -0.191600 -0.000270
0.310000 0.343023 0.343023 -0.230884 -0.000312
0.311000 0.378895 0.378895 -0.210353 -0.000283
0.312000 0.383521 0.383521 -0.213735 -0.000264
0.313000 0.457137 0.457137 -0.237571 -0.000280
0.314000 0.442520 0.442520 -0.227040 -0.000282
0.315000 0.448908 0.448908 -0.139521 -0.000307
0.316000 0.478064 0.478064 -0.051085 -0.000257
0.317000 0.400006 0.400006 0.022924 -0.000276
0.318000 0.412331 0.412331 -0.000885 -0.000283
0.319000 0.374618 0.374618 0.047369 -0.000278
0.320000 0.270840 0.270840 0.145908 -0.000276
0.321000 0.252269 0.252269 0.162612 -0.000279
0.322000 0.185210 0.185210 0.171485 -0.000280
0.323000 0.136075 0.136075 0.155925 -0.000265
0.324000 0.135600 0.135600 0.157090 -0.000274
0.325000 0.045767 0.045767 0.185440 -0.000312
0.326000 0.006021 0.006021 0.206967 -0.000284
0.327000 -0.000619 -0.000619 0.200343 -0.000247
0.328000 -0.057155 -0.057155 0.189719 -0.000262
0.329000 -0.004943 -0.004943 0.161419 -0.000299
0.330000 -0.007265 -0.007265 0.090840 -0.000310
0.331000 -0.020492 -0.020492 0.039691 -0.000275
0.332000 0.031512 0.031512 0.032830 -0.000274
0.333000 0.002028 0.002028 0.006816 -0.000286
0.334000 0.007237 0.007237 -0.023697 -0.000268
0.335000 0.019805 0.019805 -0.047797 -0.000313
0.336000 -0.039551 -0.039551 -0.049735 -0.000265
0.337000 -0.037057 -0.037057 -0.016102 -0.000241
0.338000 -0.054056 -0.054056 0.000942 -0.000314
0.339000 -0.090144 -0.090144 -0.024986 -0.000295
0.340000 -0.057628 -0.057628 0.013006 -0.000299
0.341000 -0.089998 -0.089998 0.020474 -0.000281
0.342000 -0.102977 -0.102977 0.013923 -0.000315
0.343000 -0.078840 -0.078840 0.033718 -0.000300
0.344000 -0.110329 -0.110329 0.033259 -0.000285
0.345000 -0.080707 -0.080707 -0.001639 -0.000296
0.346000 -0.060767 -0.060767 0.010305 -0.000273
0.347000 -0.084773 -0.084773 -0.010928 -0.000267
0.348000 -0.031128 -0.031128 -0.032489 -0.000278
0.349000 -0.039273 -0.039273 -0.060983 -0.000270
0.350000 -0.027922 -0.027922 -0.136942 -0.000304
0.351000 0.023317 0.023317 -0.137281 -0.000274
0.352000 -0.006999 -0.006999 -0.116323 -0.000288
0.353000 0.024398 0.024398 -0.165107 -0.000272
0.354000 0.055564 0.055564 -0.147837 -0.000290
0.355000 0.020853 0.020853 -0.143250 -0.000266
0.356000 0.057542 0.057542 -0.172950 -0.000287
0.357000 0.027446 0.027446 -0.102845 -0.000236
0.358000 0.001315 0.001315 -0.080799 -0.000259
0.359000 0.024536 0.024536 -0.101883 -0.000279
0.360000 -0.031105 -0.031105 -0.070983 -0.000275
0.361000 -0.047385 -0.047385 -0.051780 -0.000303
0.362000 -0.026287 -0.026287 -0.034895 -0.000286
0.363000 -0.070260 -0.070260 0.024373 -0.000286
0.364000 -0.052300 -0.052300 0.002479 -0.000277
0.365000 -0.046394 -0.046394 -0.008853 -0.000263
0.366000 -0.075188 -0.075188 -0.001953 -0.000269
0.367000 -0.037697 -0.037697 -0.029305 -0.000304
0.368000 -0.044410 -0.044410 -0.025544 -0.000293
0.369000 -0.041092 -0.041092 -0.043265 -0.000262
0.370000 0.006985 0.006985 -0.084576 -0.000279
0.371000 -0.009809 -0.009809 -0.110651 -0.000274
0.372000 0.032258 0.032258 -0.168761 -0.000246
0.373000 0.053329 0.053329 -0.174675 -0.000312
0.374000 0.010004 0.010004 -0.164299 -0.000255
0.375000 0.046677 0.046677 -0.198546 -0.000298
0.376000 0.030877 0.030877 -0.209443 -0.000286
0.377000 -0.007060 -0.007060 -0.166644 -0.000289
0.378000 0.037164 0.037164 -0.140095 -0.000271
0.379000 -0.010335 -0.010335 -0.097755 -0.000297
0.380000 -0.006007 -0.006007 -0.065823 -0.000278
0.381000 -0.010272 -0.010272 -0.042009 -0.000279
0.382000 -0.069866 -0.069866 0.002295 -0.000311
0.383000 -0.052906 -0.052906 0.037140 -0.000309
0.384000 -0.049828 -0.049828 0.048741 -0.000269
0.385000 -0.078677 -0.078677 0.008178 -0.000275
0.386000 -0.030879 -0.030879 -0.019452 -0.000231
0.387000 -0.055537 -0.055537 -0.012988 -0.000271
0.388000 -0.053038 -0.053038 -0.059800 -0.000265
0.389000 -0.008976 -0.008976 -0.058025 -0.000304
0.390000 -0.043878 -0.043878 -0.098870 -0.000297
0.391000 0.008017 0.008017 -0.111519 -0.000277
0.392000 0.032633 0.032633 -0.121480 -0.000289
0.393000 0.011907 0.011907 -0.154069 -0.000280
0.394000 0.055458 0.055458 -0.182881 -0.000311
0.395000 0.036547 0.036547 -0.152909 -0.000283
0.396000 0.019662 0.019662 -0.175147 -0.000280
0.397000 0.050811 0.050811 -0.157173 -0.000273
0.398000 0.015274 0.015274 -0.131124 -0.000282
0.399000 0.017607 0.017607 -0.116987 -0.000282
0.400000 0.018306 0.018306 -0.037700 -0.000308
0.401000 -0.046444 -0.046444 -0.021620 -0.000274
0.402000 -0.018341 -0.018341 -0.024439 -0.000281
0.403000 -0.035127 -0.035127 -0.004249 -0.000273
0.404000 -0.075376 -0.075376 0.010922 -0.000291
0.405000 -0.043581 -0.043581 0.007808 -0.000314
0.406000 -0.068523 -0.068523 0.006812 -0.000304
0.407000 -0.047504 -0.047504 -0.029445 -0.000277
0.408000 -0.021120 -0.021120 -0.037495 -0.000290
0.409000 -0.050922 -0.050922 -0.025399 -0.000299
0.410000 -0.009331 -0.009331 -0.084862 -0.000264
0.411000 0.019270 0.019270 -0.112642 -0.000297
0.412000 0.002051 0.002051 -0.128681 -0.000287
0.413000 0.061099 0.061099 -0.158983 -0.000314
0.414000 0.046989 0.046989 -0.144202 -0.000298
0.415000 0.049877 0.049877 -0.127056 -0.000266
0.416000 0.077855 0.077855 -0.147377 -0.000286
0.417000 0.025478 0.025478 -0.143523 -0.000313
0.418000 0.051245 0.051245 -0.155630 -0.000282
0.419000 0.042075 0.042075 -0.119588 -0.000238
0.420000 -0.011952 -0.011952 -0.053448 -0.000295
0.421000 0.018848 0.018848 -0.047168 -0.000278
0.422000 -0.022341 -0.022341 -0.020775 -0.000278
0.423000 -0.049172 -0.049172 0.001061 -0.000291
0.424000 -0.028476 -0.028476 0.005243 -0.000283
0.425000 -0.075446 -0.075446 0.016936 -0.000275
0.426000 -0.042508 -0.042508 -0.003214 -0.000273
0.427000 -0.007855 -0.007855 -0.014397 -0.000291
0.428000 -0.046562 -0.046562 -0.029336 -0.000286
0.429000 0.012800 0.012800 -0.069592 -0.000310
0.430000 0.014285 0.014285 -0.071676 -0.000287
0.431000 0.016195 0.016195 -0.110820 -0.000265
0.432000 0.075100 0.075100 -0.149375 -0.000296
0.433000 0.045276 0.045276 -0.196321 -0.000283
0.434000 0.067735 0.067735 -0.233085 -0.000259
0.435000 0.096606 0.096606 -0.169924 -0.000302
0.436000 0.036015 0.036015 -0.140158 -0.000279
0.437000 0.066937 0.066937 -0.136736 -0.000322
0.438000 0.050598 0.050598 -0.099824 -0.000272
0.439000 0.004996 0.004996 -0.095143 -0.000267
0.440000 0.033730 0.033730 -0.097871 -0.000283
0.441000 -0.011021 -0.011021 -0.023008 -0.000267
0.442000 -0.009446 -0.009446 -0.028085 -0.000287
0.443000 0.010256 0.010256 -0.009219 -0.000252
0.444000 -0.044010 -0.044010 -0.011143 -0.000282
0.445000 -0.020802 -0.020802 -0.045130 -0.000292
0.446000 -0.016854 -0.016854 -0.013972 -0.000243
0.447000 -0.043387 -0.043387 -0.006781 -0.000292
0.448000 0.010523 0.010523 -0.010016 -0.000281
0.449000 -0.007486 -0.007486 -0.007619 -0.000294
0.450000 0.008636 0.008636 -0.069270 -0.000245
0.451000 0.058035 0.058035 -0.064196 -0.000268
0.452000 0.023544 0.023544 -0.111997 -0.000262
0.453000 0.064736 0.064736 -0.188841 -0.000294
0.454000 0.086644 0.086644 -0.169550 -0.000296
0.455000 0.047824 0.047824 -0.127226 -0.000246
0.456000 0.081763 0.081763 -0.129142 -0.000265
0.457000 0.051584 0.051584 -0.122905 -0.000291
0.458000 0.030326 0.030326 -0.114353 -0.000263
0.459000 0.069643 0.069643 -0.103990 -0.000294
0.460000 0.012229 0.012229 -0.036649 -0.000270
0.461000 0.014765 0.014765 -0.026902 -0.000275
0.462000 0.021890 0.021890 -0.008222 -0.000292
0.463000 -0.039285 -0.039285 -0.005624 -0.000271
0.464000 0.005263 0.005263 -0.002244 -0.000280
0.465000 -0.020545 -0.020545 0.016483 -0.000283
0.466000 -0.035370 -0.035370 0.017181 -0.000263
0.467000 0.011919 0.011919 -0.002673 -0.000272
0.468000 -0.001038 -0.001038 -0.021713 -0.000312
0.469000 0.016958 0.016958 -0.038064 -0.000285
0.470000 0.053774 0.053774 -0.066779 -0.000273
0.471000 0.036162 0.036162 -0.096516 -0.000306
0.472000 0.080857 0.080857 -0.136881 -0.000311
0.473000 0.086636 0.086636 -0.146785 -0.000282
0.474000 0.060419 0.060419 -0.131786 -0.000290
0.475000 0.104087 0.104087 -0.121515 -0.000268
0.476000 0.073894 0.073894 -0.144445 -0.000296
0.477000 0.063684 0.063684 -0.139527 -0.000290
0.478000 0.088707 0.088707 -0.127132 -0.000294
0.479000 0.035653 0.035653 -0.083973 -0.000283
0.480000 0.052614 0.052614 -0.064073 -0.000312
0.481000 0.036060 0.036060 -0.033888 -0.000267
0.482000 -0.006370 -0.006370 -0.012992 -0.000262
0.483000 0.015835 0.015835 0.020566 -0.000255
0.484000 -0.017181 -0.017181 0.038913 -0.000295
0.485000 -0.030203 -0.030203 0.040924 -0.000286
0.486000 0.013091 0.013091 0.051809 -0.000282
0.487000 -0.006806 -0.006806 0.029634 -0.000291
0.488000 0.021312 0.021312 -0.008956 -0.000281
0.489000 0.051054 0.051054 -0.050501 -0.000260
0.490000 0.031101 0.031101 -0.104915 -0.000282
0.491000 0.083930 0.083930 -0.107202 -0.000310
0.492000 0.078674 0.078674 -0.103429 -0.000299
0.493000 0.063556 0.063556 -0.136099 -0.000255
0.494000 0.108159 0.108159 -0.129336 -0.000303
0.495000 0.080514 0.080514 -0.127781 -0.000262
0.496000 0.094861 0.094861 -0.112065 -0.000281
0.497000 0.106209 0.106209 -0.108042 -0.000286
0.498000 0.048880 0.048880 -0.125510 -0.000271
0.499000 0.089302 0.089302 -0.135895 -0.000299
0.500000 0.057566 0.057566 -0.047650 -0.000258
0.501000 0.012035 0.012035 -0.020456 -0.000270
0.502000 0.059671 0.059671 0.008620 -0.000290
0.503000 0.017652 0.017652 0.004379 -0.000300
0.504000 0.021434 0.021434 -0.028054 -0.000306
0.505000 0.043628 0.043628 -0.007504 -0.000256
0.506000 0.005812 0.005812 0.024782 -0.000272
0.507000 0.039980 0.039980 -0.009557 -0.000291
0.508000 0.046988 0.046988 -0.015426 -0.000273
0.509000 0.030295 0.030295 -0.018461 -0.000285
0.510000 0.087177 0.087177 -0.088581 -0.000279
0.511000 0.071876 0.071876 -0.110917 -0.000293
0.512000 0.060347 0.060347 -0.139190 -0.000276
0.513000 0.135638 0.135638 -0.164086 -0.000270
0.514000 0.090745 0.090745 -0.151659 -0.000300
0.515000 0.101764 0.101764 -0.163711 -0.000277
0.516000 0.125980 0.125980 -0.162822 -0.000279
0.517000 0.065399 0.065399 -0.126562 -0.000244
0.518000 0.105931 0.105931 -0.108993 -0.000294
0.519000 0.070116 0.070116 -0.085686 -0.000293
0.520000 0.041134 0.041134 -0.058322 -0.000310
0.521000 0.069641 0.069641 -0.039030 -0.000294
0.522000 0.028793 0.028793 -0.029037 -0.000289
0.523000 0.015462 0.015462 -0.043356 -0.000242
0.524000 0.035368 0.035368 -0.026012 -0.000283
0.525000 -0.013004 -0.013004 0.051622 -0.000281
0.526000 0.022124 0.022124 0.072813 -0.000274
0.527000 0.034291 0.034291 0.039449 -0.000290
0.528000 0.010775 0.010775 0.014975 -0.000280
0.529000 0.063108 0.063108 -0.049120 -0.000269
0.530000 0.054444 0.054444 -0.086551 -0.000299
0.531000 0.073028 0.073028 -0.147348 -0.000268
0.532000 0.101808 0.101808 -0.145001 -0.000259
0.533000 0.080718 0.080718 -0.151302 -0.000292
0.534000 0.116628 0.116628 -0.175543 -0.000322
0.535000 0.119759 0.119759 -0.152503 -0.000263
0.536000 0.072739 0.072739 -0.133420 -0.000269
0.537000 0.103483 0.103483 -0.104930 -0.000281
0.538000 0.071315 0.071315 -0.054878 -0.000317
0.539000 0.050864 0.050864 -0.075065 -0.000287
0.540000 0.078483 0.078483 -0.008617 -0.000263
0.541000 0.013044 0.013044 -0.023645 -0.000304
0.542000 0.024279 0.024279 -0.040354 -0.000290
0.543000 0.014601 0.014601 -0.006312 -0.000285
0.544000 -0.029480 -0.029480 0.017478 -0.000286
0.545000 0.029159 0.029159 0.040951 -0.000278
0.546000 0.013753 0.013753 0.059700 -0.000301
0.547000 0.003020 0.003020 0.001099 -0.000276
0.548000 0.053935 0.053935 -0.033932 -0.000227
0.549000 0.033751 0.033751 -0.055680 -0.000276
0.550000 0.054598 0.054598 -0.090461 -0.000273
0.551000 0.097571 0.097571 -0.106638 -0.000290
0.552000 0.060573 0.060573 -0.115934 -0.000298
0.553000 0.092478 0.092478 -0.155192 -0.000293
0.554000 0.108414 0.108414 -0.164077 -0.000297
0.555000 0.064141 0.064141 -0.163913 -0.000282
0.556000 0.103213 0.103213 -0.169828 -0.000300
0.557000 0.068483 0.068483 -0.151457 -0.000294
0.558000 0.057683 0.057683 -0.146995 -0.000267
0.559000 0.087504 0.087504 -0.121889 -0.000294
0.560000 0.024500 0.024500 -0.046351 -0.000274
0.561000 0.017041 0.017041 -0.025696 -0.000250
0.562000 0.033850 0.033850 0.010294 -0.000285
0.563000 -0.019882 -0.019882 0.017133 -0.000284
0.564000 0.014842 0.014842 0.014714 -0.000291
0.565000 -0.001652 -0.001652 0.012764 -0.000273
0.566000 -0.023193 -0.023193 -0.018482 -0.000277
0.567000 0.049154 0.049154 -0.053736 -0.000262
0.568000 0.006123 0.006123 -0.042147 -0.000257
0.569000 0.036738 0.036738 -0.073247 -0.000309
0.570000 0.071018 0.071018 -0.099902 -0.000293
0.571000 0.051949 0.051949 -0.092768 -0.000276
0.572000 0.094090 0.094090 -0.141941 -0.000272
0.573000 0.098725 0.098725 -0.148160 -0.000284
0.574000 0.072852 0.072852 -0.174889 -0.000302
0.575000 0.116448 0.116448 -0.183148 -0.000300
0.576000 0.073511 0.073511 -0.182339 -0.000273
0.577000 0.058079 0.058079 -0.167090 -0.000249
0.578000 0.079024 0.079024 -0.130306 -0.000273
0.579000 0.017815 0.017815 -0.063688 -0.000295
0.580000 0.027001 0.027001 -0.037660 -0.000285
0.581000 0.016817 0.016817 0.004779 -0.000264
0.582000 -0.024538 -0.024538 -0.028747 -0.000271
0.583000 0.001501 0.001501 -0.008314 -0.000323
0.584000 -0.029938 -0.029938 0.008169 -0.000296
0.585000 -0.046292 -0.046292 -0.014438 -0.000230
0.586000 -0.002626 -0.002626 -0.037827 -0.000276
0.587000 -0.012002 -0.012002 -0.056029 -0.000299
0.588000 0.009815 0.009815 -0.079609 -0.000251
0.589000 0.032433 0.032433 -0.061789 -0.000290
0.590000 0.008229 0.008229 -0.081674 -0.000287
0.591000 0.061365 0.061365 -0.120744 -0.000293
0.592000 0.057544 0.057544 -0.135563 -0.000289
0.593000 0.045779 0.045779 -0.189248 -0.000285
0.594000 0.095767 0.095767 -0.177509 -0.000297
0.595000 0.055212 0.055212 -0.172227 -0.000270
0.596000 0.061407 0.061407 -0.194701 -0.000268
0.597000 0.074009 0.074009 -0.150114 -0.000259
0.598000 0.017331 0.017331 -0.113128 -0.000300
0.599000 0.038075 0.038075 -0.083671 -0.000287
0.600000 0.024595 0.024595 -0.015665 -0.000297
0.601000 -0.022542 -0.022542 -0.005427 -0.000275
0.602000 0.014878 0.014878 -0.034317 -0.000300
0.603000 -0.029778 -0.029778 -0.021592 -0.000305
0.604000 -0.042478 -0.042478 -0.020564 -0.000267
0.605000 0.003009 0.003009 -0.015706 -0.000283
0.606000 -0.039350 -0.039350 -0.021067 -0.000309
0.607000 -0.006658 -0.006658 -0.056674 -0.000303
0.608000 0.000377 0.000377 -0.063961 -0.000295
0.609000 -0.015515 -0.015515 -0.064383 -0.000294
0.610000 0.035106 0.035106 -0.120565 -0.000278
0.611000 0.028504 0.028504 -0.079431 -0.000287
0.612000 0.020959 0.020959 -0.093473 -0.000274
0.613000 0.080426 0.080426 -0.121674 -0.000280
0.614000 0.052709 0.052709 -0.162456 -0.000269
0.615000 0.056034 0.056034 -0.211424 -0.000308
0.616000 0.054515 0.054515 -0.160037 -0.000278
0.617000 0.016522 0.016522 -0.153519 -0.000253
0.618000 0.048860 0.048860 -0.112264 -0.000308
0.619000 0.030385 0.030385 -0.076343 -0.000276
0.620000 -0.010983 -0.010983 -0.052794 -0.000297
0.621000 0.019224 0.019224 -0.056291 -0.000275
0.622000 -0.028873 -0.028873 -0.036982 -0.000275
0.623000 -0.051526 -0.051526 -0.036036 -0.000275
0.624000 -0.027669 -0.027669 -0.006098 -0.000279
0.625000 -0.061785 -0.061785 -0.012834 -0.000284
0.626000 -0.030071 -0.030071 -0.021911 -0.000303
0.627000 -0.007633 -0.007633 -0.018522 -0.000268
0.628000 -0.030876 -0.030876 -0.046557 -0.000245
0.629000 0.024412 0.024412 -0.063077 -0.000297
0.630000 0.016711 0.016711 -0.118009 -0.000301
0.631000 0.028650 0.028650 -0.138041 -0.000280
0.632000 0.062281 0.062281 -0.150369 -0.000301
0.633000 0.042401 0.042401 -0.161789 -0.000266
0.634000 0.082341 0.082341 -0.206941 -0.000257
0.635000 0.079469 0.079469 -0.148219 -0.000278
0.636000 0.040123 0.040123 -0.159276 -0.000285
0.637000 0.069622 0.069622 -0.151304 -0.000300
0.638000 0.030477 0.030477 -0.108685 -0.000263
0.639000 0.012403 0.012403 -0.096956 -0.000255
0.640000 0.039235 0.039235 -0.063693 -0.000263
0.641000 -0.028015 -0.028015 -0.048640 -0.000279
0.642000 -0.012067 -0.012067 -0.035379 -0.000270
0.643000 -0.015717 -0.015717 -0.004817 -0.000300
0.644000 -0.060258 -0.060258 0.021932 -0.000279
0.645000 -0.018835 -0.018835 -0.000279 -0.000263
0.646000 -0.036262 -0.036262 0.005220 -0.000256
0.647000 -0.039824 -0.039824 -0.023091 -0.000283
0.648000 -0.001181 -0.001181 -0.045976 -0.000282
0.649000 -0.022375 -0.022375 -0.035371 -0.000290
0.650000 0.006020 0.006020 -0.083028 -0.000291
0.651000 0.048407 0.048407 -0.088807 -0.000299
0.652000 0.012661 0.012661 -0.113730 -0.000316
0.653000 0.076392 0.076392 -0.171936 -0.000264
0.654000 0.071396 0.071396 -0.157407 -0.000279
0.655000 0.038050 0.038050 -0.161562 -0.000250
0.656000 0.084423 0.084423 -0.147390 -0.000263
0.657000 0.037426 0.037426 -0.104991 -0.000271
0.658000 0.028110 0.028110 -0.112500 -0.000265
0.659000 0.050913 0.050913 -0.093211 -0.000286
0.660000 -0.010389 -0.010389 -0.045509 -0.000262
0.661000 0.002450 0.002450 -0.046297 -0.000267
0.662000 -0.002845 -0.002845 -0.018336 -0.000297
0.663000 -0.063813 -0.063813 0.003339 -0.000298
0.664000 -0.012219 -0.012219 0.010810 -0.000230
0.665000 -0.029770 -0.029770 0.013476 -0.000277
0.666000 -0.039997 -0.039997 -0.022298 -0.000271
0.667000 0.012288 0.012288 -0.032596 -0.000278
0.668000 -0.018866 -0.018866 -0.038786 -0.000243
0.669000 0.014612 0.014612 -0.061557 -0.000290
0.670000 0.047686 0.047686 -0.112910 -0.000283
0.671000 0.012089 0.012089 -0.110229 -0.000267
0.672000 0.061584 0.061584 -0.146404 -0.000310
0.673000 0.070727 0.070727 -0.158748 -0.000277
0.674000 0.059592 0.059592 -0.152150 -0.000270
0.675000 0.089920 0.089920 -0.138586 -0.000260
0.676000 0.040992 0.040992 -0.130023 -0.000285
0.677000 0.031478 0.031478 -0.149679 -0.000274
0.678000 0.052747 0.052747 -0.113270 -0.000287
0.679000 -0.010136 -0.010136 -0.076326 -0.000272
0.680000 0.015488 0.015488 -0.051413 -0.000300
0.681000 -0.013746 -0.013746 -0.003893 -0.000329
0.682000 -0.036851 -0.036851 -0.013423 -0.000265
0.683000 -0.009095 -0.009095 -0.000216 -0.000241
0.684000 -0.044178 -0.044178 0.035462 -0.000301
0.685000 -0.035552 -0.035552 0.010838 -0.000283
0.686000 0.004690 0.004690 0.003636 -0.000276
0.687000 -0.025277 -0.025277 -0.018429 -0.000321
0.688000 0.004486 0.004486 -0.094708 -0.000297
0.689000 0.029061 0.029061 -0.117724 -0.000313
0.690000 0.000194 0.000194 -0.129248 -0.000280
0.691000 0.057752 0.057752 -0.140548 -0.000268
0.692000 0.046055 0.046055 -0.155431 -0.000273
0.693000 0.049076 0.049076 -0.177758 -0.000287
0.694000 0.098817 0.098817 -0.165171 -0.000286
0.695000 0.061094 0.061094 -0.152350 -0.000274
0.696000 0.066006 0.066006 -0.193198 -0.000286
0.697000 0.073893 0.073893 -0.176015 -0.000281
0.698000 0.019280 0.019280 -0.150439 -0.000300
0.699000 0.037744 0.037744 -0.097343 -0.000264
0.700000 0.003875 0.003875 -0.002476 -0.000278
0.701000 -0.043734 -0.043734 0.025446 -0.000303
0.702000 -0.013535 -0.013535 0.014422 -0.000250
0.703000 -0.046544 -0.046544 -0.015946 -0.000277
0.704000 -0.051395 -0.051395 -0.018628 -0.000263
0.705000 -0.017558 -0.017558 0.000977 -0.000289
0.706000 -0.060981 -0.060981 -0.028942 -0.000298
0.707000 -0.015936 -0.015936 -0.040089 -0.000303
0.708000 -0.005442 -0.005442 -0.054439 -0.000308
0.709000 -0.026010 -0.026010 -0.065565 -0.000290
0.710000 0.036302 0.036302 -0.138715 -0.000259
0.711000 0.032830 0.032830 -0.113831 -0.000243
0.712000 0.034483 0.034483 -0.144540 -0.000276
0.713000 0.091323 0.091323 -0.142789 -0.000295
0.714000 0.052622 0.052622 -0.134583 -0.000271
0.715000 0.073387 0.073387 -0.177624 -0.000287
0.716000 0.073098 0.073098 -0.167786 -0.000293
0.717000 0.018396 0.018396 -0.136061 -0.000284
0.718000 0.060623 0.060623 -0.071698 -0.000271
0.719000 0.031820 0.031820 -0.043920 -0.000286
0.720000 -0.009590 -0.009590 -0.059969 -0.000298
0.721000 0.021801 0.021801 -0.049333 -0.000262
0.722000 -0.024453 -0.024453 -0.035074 -0.000267
0.723000 -0.031090 -0.031090 -0.045024 -0.000273
0.724000 -0.020956 -0.020956 -0.035165 -0.000271
0.725000 -0.061775 -0.061775 -0.031750 -0.000253
0.726000 -0.017875 -0.017875 -0.039177 -0.000286
0.727000 -0.019899 -0.019899 -0.043587 -0.000281
0.728000 -0.032133 -0.032133 -0.050443 -0.000256
0.729000 0.023997 0.023997 -0.063262 -0.000234
0.730000 0.006510 0.006510 -0.117825 -0.000241
0.731000 0.036681 0.036681 -0.151417 -0.000274
0.732000 0.075120 0.075120 -0.161278 -0.000275
0.733000 0.040467 0.040467 -0.163085 -0.000287
0.734000 0.058650 0.058650 -0.169534 -0.000293
0.735000 0.058480 0.058480 -0.141863 -0.000260
0.736000 0.019456 0.019456 -0.130912 -0.000270
0.737000 0.060120 0.060120 -0.113202 -0.000251
0.738000 0.027352 0.027352 -0.101351 -0.000280
0.739000 0.018708 0.018708 -0.126731 -0.000299
0.740000 0.026639 0.026639 -0.074268 -0.000283
0.741000 -0.031984 -0.031984 -0.031664 -0.000287
0.742000 -0.013768 -0.013768 -0.015216 -0.000262
0.743000 -0.023852 -0.023852 -0.010250 -0.000293
0.744000 -0.060590 -0.060590 -0.024416 -0.000277
0.745000 -0.023878 -0.023878 -0.013122 -0.000300
0.746000 -0.031402 -0.031402 -0.024907 -0.000305
0.747000 -0.034007 -0.034007 -0.031616 -0.000296
0.748000 0.024566 0.024566 -0.050705 -0.000285
0.749000 -0.009099 -0.009099 -0.060199 -0.000273
0.750000 0.013546 0.013546 -0.146196 -0.000305
0.751000 0.054785 0.054785 -0.128735 -0.000286
0.752000 0.009583 0.009583 -0.137959 -0.000291
0.753000 0.058020 0.058020 -0.174063 -0.000285
0.754000 0.063685 0.063685 -0.161923 -0.000259
0.755000 0.039272 0.039272 -0.155211 -0.000291
0.756000 0.083648 0.083648 -0.151165 -0.000285
0.757000 0.043655 0.043655 -0.149882 -0.000287
0.758000 0.020980 0.020980 -0.132395 -0.000272
0.759000 0.053702 0.053702 -0.107092 -0.000290
0.760000 -0.012317 -0.012317 -0.042057 -0.000238
0.761000 -0.005704 -0.005704 -0.058916 -0.000281
0.762000 -0.006694 -0.006694 -0.035923 -0.000269
0.763000 -0.061208 -0.061208 -0.029967 -0.000254
0.764000 -0.024961 -0.024961 -0.034463 -0.000294
0.765000 -0.050365 -0.050365 0.013564 -0.000291
0.766000 -0.054849 -0.054849 -0.014223 -0.000252
0.767000 0.001897 0.001897 -0.027771 -0.000270
0.768000 -0.045359 -0.045359 -0.028325 -0.000292
0.769000 0.000605 0.000605 -0.094461 -0.000269
0.770000 0.035416 0.035416 -0.102279 -0.000249
0.771000 0.007921 0.007921 -0.122962 -0.000260
0.772000 0.048626 0.048626 -0.144856 -0.000283
0.773000 0.060242 0.060242 -0.165638 -0.000276
0.774000 0.044997 0.044997 -0.159311 -0.000284
0.775000 0.079539 0.079539 -0.134247 -0.000264
0.776000 0.043002 0.043002 -0.117942 -0.000268
0.777000 0.038681 0.038681 -0.132031 -0.000300
0.778000 0.057426 0.057426 -0.110578 -0.000308
0.779000 -0.001507 -0.001507 -0.076785 -0.000242
0.780000 0.017458 0.017458 -0.043351 -0.000293
0.781000 -0.007126 -0.007126 0.005714 -0.000312
0.782000 -0.042471 -0.042471 0.021899 -0.000286
0.783000 -0.013585 -0.013585 0.022961 -0.000278
0.784000 -0.042291 -0.042291 0.037701 -0.000269
0.785000 -0.050673 -0.050673 0.038707 -0.000269
0.786000 -0.008122 -0.008122 0.010138 -0.000288
0.787000 -0.030494 -0.030494 0.007160 -0.000325
0.788000 0.009715 0.009715 -0.079533 -0.000304
0.789000 0.034481 0.034481 -0.071567 -0.000275
0.790000 0.017814 0.017814 -0.088892 -0.000258
0.791000 0.064759 0.064759 -0.126040 -0.000271
0.792000 0.042309 0.042309 -0.130317 -0.000275
0.793000 0.048767 0.048767 -0.153606 -0.000276
0.794000 0.079760 0.079760 -0.167341 -0.000251
0.795000 0.051391 0.051391 -0.193947 -0.000319
0.796000 0.063231 0.063231 -0.158502 -0.000269
0.797000 0.076908 0.076908 -0.100649 -0.000274
0.798000 0.017363 0.017363 -0.062062 -0.000257
0.799000 0.031228 0.031228 -0.031025 -0.000286
0.800000 0.003421 0.003421 -0.006766 -0.000310
0.801000 -0.027613 -0.027613 0.000924 -0.000313
0.802000 0.001779 0.001779 -0.008349 -0.000254
0.803000 -0.039949 -0.039949 0.030672 -0.000275
0.804000 -0.034617 -0.034617 0.014277 -0.000261
0.805000 0.016774 0.016774 0.017408 -0.000264
0.806000 -0.017162 -0.017162 -0.004615 -0.000302
0.807000 0.022449 0.022449 -0.026407 -0.000270
0.808000 0.048130 0.048130 -0.036168 -0.000299
0.809000 0.014035 0.014035 -0.064861 -0.000268
0.810000 0.078858 0.078858 -0.110328 -0.000301
0.811000 0.064206 0.064206 -0.119553 -0.000304
0.812000 0.054823 0.054823 -0.109180 -0.000298
0.813000 0.099094 0.099094 -0.120069 -0.000260
0.814000 0.058876 0.058876 -0.128137 -0.000237
0.815000 0.079799 0.079799 -0.174718 -0.000286
0.816000 0.094663 0.094663 -0.105534 -0.000282
0.817000 0.050978 0.050978 -0.105588 -0.000287
0.818000 0.091529 0.091529 -0.143178 -0.000256
0.819000 0.072789 0.072789 -0.098663 -0.000291
0.820000 0.026177 0.026177 -0.062089 -0.000290
0.821000 0.057443 0.057443 -0.060675 -0.000260
0.822000 0.008475 0.008475 -0.022258 -0.000304
0.823000 -0.002987 -0.002987 -0.010189 -0.000278
0.824000 0.021673 0.021673 -0.005479 -0.000276
0.825000 -0.003983 -0.003983 -0.029080 -0.000288
0.826000 0.027776 0.027776 -0.044499 -0.000280
0.827000 0.049138 0.049138 -0.049316 -0.000298
0.828000 0.019885 0.019885 -0.053619 -0.000275
0.829000 0.063426 0.063426 -0.088204 -0.000308
0.830000 0.067265 0.067265 -0.118013 -0.000288
0.831000 0.079499 0.079499 -0.120432 -0.000309
0.832000 0.107171 0.107171 -0.133474 -0.000283
0.833000 0.071375 0.071375 -0.177689 -0.000281
0.834000 0.107367 0.107367 -0.218894 -0.000271
0.835000 0.104103 0.104103 -0.198317 -0.000280
0.836000 0.054285 0.054285 -0.195342 -0.000286
0.837000 0.089093 0.089093 -0.202428 -0.000266
0.838000 0.058581 0.058581 -0.158827 -0.000295
0.839000 0.024115 0.024115 -0.106868 -0.000258
0.840000 0.039482 0.039482 -0.070179 -0.000271
0.841000 -0.031785 -0.031785 -0.006355 -0.000300
0.842000 -0.016351 -0.016351 -0.038871 -0.000298
0.843000 -0.021063 -0.021063 -0.034014 -0.000271
0.844000 -0.060194 -0.060194 -0.006549 -0.000271
0.845000 -0.015543 -0.015543 -0.000585 -0.000297
0.846000 -0.021018 -0.021018 -0.023242 -0.000291
0.847000 -0.041187 -0.041187 -0.036346 -0.000243
0.848000 0.020403 0.020403 -0.034857 -0.000294
0.849000 -0.010260 -0.010260 -0.035138 -0.000292
0.850000 0.004329 0.004329 -0.056898 -0.000283
0.851000 0.031327 0.031327 -0.073690 -0.000285
0.852000 -0.003801 -0.003801 -0.155278 -0.000308
0.853000 0.040800 0.040800 -0.196504 -0.000282
0.854000 0.032254 0.032254 -0.183090 -0.000284
0.855000 0.011203 0.011203 -0.192015 -0.000295
0.856000 0.079567 0.079567 -0.162020 -0.000263
0.857000 0.032770 0.032770 -0.134972 -0.000269
0.858000 0.014265 0.014265 -0.137172 -0.000277
0.859000 0.032351 0.032351 -0.090124 -0.000241
0.860000 -0.024177 -0.024177 -0.068232 -0.000319
0.861000 -0.018018 -0.018018 -0.058676 -0.000294
0.862000 -0.002707 -0.002707 -0.013608 -0.000285
0.863000 -0.071885 -0.071885 0.031264 -0.000304
0.864000 -0.039311 -0.039311 0.027090 -0.000274
0.865000 -0.054841 -0.054841 0.010685 -0.000273
0.866000 -0.066499 -0.066499 -0.045632 -0.000271
0.867000 -0.021262 -0.021262 -0.031462 -0.000256
0.868000 -0.041114 -0.041114 -0.053593 -0.000279
0.869000 -0.021459 -0.021459 -0.099747 -0.000278
0.870000 0.011071 0.011071 -0.124049 -0.000274
0.871000 -0.022152 -0.022152 -0.152764 -0.000276
0.872000 0.025170 0.025170 -0.176420 -0.000294
0.873000 0.037673 0.037673 -0.157924 -0.000297
0.874000 0.019032 0.019032 -0.174095 -0.000250
0.875000 0.062214 0.062214 -0.181094 -0.000280
0.876000 0.028360 0.028360 -0.150837 -0.000323
0.877000 0.015574 0.015574 -0.145503 -0.000322
0.878000 0.022210 0.022210 -0.125208 -0.000273
0.879000 -0.029567 -0.029567 -0.070824 -0.000281
0.880000 -0.012973 -0.012973 -0.049416 -0.000300
0.881000 -0.029668 -0.029668 -0.000312 -0.000299
0.882000 -0.071691 -0.071691 0.011177 -0.000263
0.883000 -0.035591 -0.035591 -0.025320 -0.000276
0.884000 -0.080653 -0.080653 -0.008785 -0.000256
0.885000 -0.085180 -0.085180 -0.014932 -0.000270
0.886000 -0.046627 -0.046627 -0.019409 -0.000277
0.887000 -0.057100 -0.057100 -0.023953 -0.000266
0.888000 -0.028105 -0.028105 -0.027174 -0.000275
0.889000 -0.007086 -0.007086 -0.054996 -0.000238
0.890000 -0.036294 -0.036294 -0.113154 -0.000276
0.891000 0.019150 0.019150 -0.142320 -0.000282
0.892000 0.016726 0.016726 -0.127886 -0.000295
0.893000 0.008819 0.008819 -0.154535 -0.000271
0.894000 0.068645 0.068645 -0.203467 -0.000255
0.895000 0.013641 0.013641 -0.172472 -0.000277
0.896000 0.029827 0.029827 -0.168236 -0.000275
0.897000 0.038255 0.038255 -0.151585 -0.000285
0.898000 -0.028235 -0.028235 -0.127342 -0.000297
0.899000 0.007850 0.007850 -0.107052 -0.000269
0.900000 -0.021343 -0.021343 -0.038186 -0.000280
0.901000 -0.054444 -0.054444 0.002021 -0.000258
0.902000 -0.025175 -0.025175 -0.006596 -0.000282
0.903000 -0.078078 -0.078078 -0.004474 -0.000281
0.904000 -0.081079 -0.081079 -0.024364 -0.000325
0.905000 -0.049755 -0.049755 -0.014778 -0.000279
0.906000 -0.091189 -0.091189 -0.002959 -0.000277
0.907000 -0.058286 -0.058286 -0.000537 -0.000271
0.908000 -0.035977 -0.035977 -0.013857 -0.000270
0.909000 -0.067402 -0.067402 -0.052113 -0.000286
0.910000 -0.016272 -0.016272 -0.089990 -0.000281
0.911000 -0.047109 -0.047109 -0.118636 -0.000255
0.912000 -0.053143 -0.053143 -0.139915 -0.000278
0.913000 0.002224 0.002224 -0.110648 -0.000287
0.914000 -0.039111 -0.039111 -0.109871 -0.000294
0.915000 -0.036911 -0.036911 -0.141691 -0.000265
0.916000 -0.021875 -0.021875 -0.150462 -0.000286
0.917000 -0.079056 -0.079056 -0.130000 -0.000233
0.918000 -0.046809 -0.046809 -0.122074 -0.000264
0.919000 -0.053595 -0.053595 -0.067037 -0.000288
0.920000 -0.078461 -0.078461 -0.038346 -0.000273
0.921000 -0.021626 -0.021626 -0.053438 -0.000288
0.922000 -0.035396 -0.035396 -0.034961 -0.000284
0.923000 -0.039604 -0.039604 -0.069445 -0.000296
0.924000 -0.004191 -0.004191 -0.051492 -0.000286
0.925000 -0.024269 -0.024269 -0.062377 -0.000250
0.926000 0.041885 0.041885 -0.106974 -0.000257
0.927000 0.082485 0.082485 -0.106673 -0.000295
0.928000 0.086170 0.086170 -0.143276 -0.000250
0.929000 0.155577 0.155577 -0.182723 -0.000274
0.930000 0.157271 0.157271 -0.192462 -0.000238
0.931000 0.182753 0.182753 -0.238441 -0.000291
0.932000 0.256305 0.256305 -0.271602 -0.000265
0.933000 0.263308 0.263308 -0.286836 -0.000277
0.934000 0.326271 0.326271 -0.311041 -0.000285
0.935000 0.377150 0.377150 -0.320712 -0.000269
0.936000 0.357067 0.357067 -0.277064 -0.000271
0.937000 0.422448 0.422448 -0.256736 -0.000258
0.938000 0.405288 0.405288 -0.191396 -0.000302
0.939000 0.401312 0.401312 -0.127887 -0.000288
0.940000 0.421816 0.421816 -0.077177 -0.000293
0.941000 0.372390 0.372390 0.004970 -0.000309
0.942000 0.395054 0.395054 0.066820 -0.000271
0.943000 0.396904 0.396904 0.111135 -0.000272
0.944000 0.307402 0.307402 0.137435 -0.000271
0.945000 0.308819 0.308819 0.152805 -0.000291
0.946000 0.245050 0.245050 0.167415 -0.000280
0.947000 0.211513 0.211513 0.147711 -0.000247
0.948000 0.235962 0.235962 0.098271 -0.000283
0.949000 0.188945 0.188945 0.044578 -0.000298
0.950000 0.160547 0.160547 0.041831 -0.000268
0.951000 0.164040 0.164040 -0.000883 -0.000283
0.952000 0.070529 0.070529 0.012961 -0.000281
0.953000 0.076696 0.076696 -0.001053 -0.000304
0.954000 0.073365 0.073365 -0.001785 -0.000285
0.955000 0.030654 0.030654 -0.012181 -0.000305
0.956000 0.072612 0.072612 -0.007382 -0.000276
0.957000 0.047665 0.047665 0.008693 -0.000260
0.958000 -0.003834 -0.003834 0.015977 -0.000285
0.959000 0.034311 0.034311 0.052721 -0.000273
0.960000 -0.045043 -0.045043 0.090504 -0.000268
0.961000 -0.076088 -0.076088 0.114124 -0.000257
0.962000 -0.088775 -0.088775 0.134173 -0.000260
0.963000 -0.144266 -0.144266 0.133682 -0.000277
0.964000 -0.121497 -0.121497 0.125972 -0.000294
0.965000 -0.122363 -0.122363 0.131470 -0.000268
0.966000 -0.128232 -0.128232 0.094918 -0.000309
0.967000 -0.071071 -0.071071 0.043137 -0.000267
0.968000 -0.075255 -0.075255 0.029463 -0.000281
0.969000 -0.065915 -0.065915 -0.024300 -0.000279
0.970000 -0.012929 -0.012929 -0.037117 -0.000308
0.971000 -0.037819 -0.037819 -0.078589 -0.000248
0.972000 0.001506 0.001506 -0.114891 -0.000247
0.973000 0.011656 0.011656 -0.112919 -0.000272
0.974000 -0.014563 -0.014563 -0.168630 -0.000289
0.975000 0.021380 0.021380 -0.223975 -0.000272
0.976000 0.015845 0.015845 -0.184763 -0.000278
0.977000 -0.002689 -0.002689 -0.158958 -0.000253
0.978000 0.018648 0.018648 -0.132944 -0.000285
0.979000 -0.025994 -0.025994 -0.049035 -0.000288
0.980000 -0.044490 -0.044490 -0.007447 -0.000243
0.981000 -0.028863 -0.028863 0.029265 -0.000294
0.982000 -0.084354 -0.084354 0.059744 -0.000285
0.983000 -0.066699 -0.066699 0.020702 -0.000284
0.984000 -0.071496 -0.071496 0.033955 -0.000295
0.985000 -0.097460 -0.097460 0.050627 -0.000270
0.986000 -0.040265 -0.040265 0.030611 -0.000246
0.987000 -0.076973 -0.076973 0.017859 -0.000294
0.988000 -0.059623 -0.059623 -0.029449 -0.000248
0.989000 -0.012565 -0.012565 -0.084039 -0.000296
0.990000 -0.033042 -0.033042 -0.092028 -0.000270
0.991000 0.008124 0.008124 -0.105511 -0.000266
0.992000 0.028289 0.028289 -0.106066 -0.000294
0.993000 -0.002330 -0.002330 -0.131910 -0.000303
0.994000 0.042241 0.042241 -0.178233 -0.000266
0.995000 0.025835 0.025835 -0.158621 -0.000271
0.996000 -0.002278 -0.002278 -0.136896 -0.000284
0.997000 0.031097 0.031097 -0.103019 -0.000283
0.998000 -0.017085 -0.017085 -0.081701 -0.000279
0.999000 -0.025434 -0.025434 -0.080424 -0.000294
1.000000 -0.008560 -0.008560 -0.035968 -0.000305
1.001000 -0.067865 -0.067865 0.031072 -0.000292
1.002000 -0.040018 -0.040018 0.071568 -0.000287
1.003000 -0.057207 -0.057207 0.073602 -0.000247
1.004000 -0.107648 -0.107648 0.021397 -0.000300
1.005000 -0.054688 -0.054688 0.011415 -0.000283
1.006000 -0.070491 -0.070491 0.031607 -0.000276
1.007000 -0.068273 -0.068273 -0.002087 -0.000261
1.008000 -0.021858 -0.021858 -0.001830 -0.000261
1.009000 -0.037037 -0.037037 -0.035710 -0.000249
1.010000 -0.004369 -0.004369 -0.074421 -0.000266
1.011000 0.022691 0.022691 -0.094444 -0.000285
1.012000 -0.002800 -0.002800 -0.119409 -0.000308
1.013000 0.048589 0.048589 -0.174824 -0.000258
1.014000 0.036651 0.036651 -0.149210 -0.000263
1.015000 0.009005 0.009005 -0.151454 -0.000232
1.016000 0.045037 0.045037 -0.138950 -0.000279
1.017000 0.002297 0.002297 -0.108579 -0.000265
1.018000 -0.019535 -0.019535 -0.096644 -0.000287
1.019000 0.013740 0.013740 -0.069436 -0.000271
1.020000 -0.049694 -0.049694 -0.015914 -0.000308
1.021000 -0.034599 -0.034599 0.003596 -0.000288
1.022000 -0.033266 -0.033266 0.049387 -0.000269
1.023000 -0.067005 -0.067005 0.026373 -0.000293
1.024000 -0.046413 -0.046413 0.012930 -0.000293
1.025000 -0.053171 -0.053171 0.030637 -0.000291
1.026000 -0.061268 -0.061268 -0.013325 -0.000306
1.027000 -0.017475 -0.017475 -0.013347 -0.000287
1.028000 -0.025493 -0.025493 -0.039651 -0.000286
1.029000 -0.000604 -0.000604 -0.094345 -0.000264
1.030000 0.037921 0.037921 -0.095922 -0.000287
1.031000 0.008312 0.008312 -0.112519 -0.000246
1.032000 0.057185 0.057185 -0.121663 -0.000297
1.033000 0.047162 0.047162 -0.091605 -0.000277
1.034000 0.015252 0.015252 -0.111786 -0.000255
1.035000 0.058392 0.058392 -0.133641 -0.000287
1.036000 0.030006 0.030006 -0.094793 -0.000295
1.037000 0.018373 0.018373 -0.117686 -0.000294
1.038000 0.033584 0.033584 -0.099081 -0.000251
1.039000 -0.027143 -0.027143 -0.067541 -0.000289
1.040000 -0.006033 -0.006033 -0.078749 -0.000341
1.041000 -0.014006 -0.014006 -0.056014 -0.000285
1.042000 -0.063496 -0.063496 0.006496 -0.000285
1.043000 -0.037945 -0.037945 0.012697 -0.000279
1.044000 -0.059965 -0.059965 0.051155 -0.000273
1.045000 -0.067005 -0.067005 0.047056 -0.000278
1.046000 -0.016918 -0.016918 0.005110 -0.000283
1.047000 -0.056464 -0.056464 -0.012508 -0.000270
1.048000 -0.016324 -0.016324 -0.056620 -0.000316
1.049000 0.027297 0.027297 -0.074956 -0.000255
1.050000 0.013021 0.013021 -0.079753 -0.000292
1.051000 0.052019 0.052019 -0.101077 -0.000233
1.052000 0.056226 0.056226 -0.126116 -0.000256
1.053000 0.033680 0.033680 -0.157054 -0.000297
1.054000 0.079037 0.079037 -0.159193 -0.000297
1.055000 0.046757 0.046757 -0.157617 -0.000263
1.056000 0.032635 0.032635 -0.133582 -0.000279
1.057000 0.043655 0.043655 -0.102362 -0.000267
1.058000 -0.021042 -0.021042 -0.081125 -0.000285
1.059000 0.006925 0.006925 -0.044736 -0.000310
1.060000 -0.014664 -0.014664 0.012919 -0.000271
1.061000 -0.046817 -0.046817 0.023418 -0.000244
1.062000 -0.002677 -0.002677 0.035019 -0.000257
1.063000 -0.050746 -0.050746 0.092849 -0.000275
1.064000 -0.066030 -0.066030 0.060743 -0.000282
1.065000 -0.033990 -0.033990 0.018978 -0.000278
1.066000 -0.066972 -0.066972 0.014595 -0.000264
1.067000 -0.028951 -0.028951 -0.014038 -0.000288
1.068000 0.006315 0.006315 -0.029721 -0.000272
1.069000 -0.022558 -0.022558 -0.086564 -0.000268
1.070000 0.036864 0.036864 -0.119562 -0.000295
1.071000 0.030211 0.030211 -0.103166 -0.000271
1.072000 0.013323 0.013323 -0.128494 -0.000271
1.073000 0.066458 0.066458 -0.141165 -0.000289
1.074000 0.030875 0.030875 -0.128856 -0.000272
1.075000 0.050573 0.050573 -0.169197 -0.000236
1.076000 0.060016 0.060016 -0.123783 -0.000258
1.077000 0.005200 0.005200 -0.074024 -0.000262
1.078000 0.043093 0.043093 -0.075109 -0.000271
1.079000 0.038850 0.038850 -0.029114 -0.000267
1.080000 -0.024409 -0.024409 -0.003171 -0.000277
1.081000 -0.001129 -0.001129 0.015734 -0.000265
1.082000 -0.040170 -0.040170 0.051331 -0.000299
1.083000 -0.068549 -0.068549 0.079253 -0.000292
1.084000 -0.030487 -0.030487 0.062471 -0.000297
1.085000 -0.056609 -0.056609 0.035261 -0.000296
1.086000 -0.026831 -0.026831 0.008583 -0.000286
1.087000 -0.001512 -0.001512 0.016156 -0.000295
1.088000 -0.026491 -0.026491 0.025007 -0.000307
1.089000 0.019645 0.019645 -0.053712 -0.000347
1.090000 0.031245 0.031245 -0.077703 -0.000283
1.091000 0.033441 0.033441 -0.129228 -0.000284
1.092000 0.085228 0.085228 -0.107278 -0.000287
1.093000 0.046790 0.046790 -0.060755 -0.000286
1.094000 0.061044 0.061044 -0.113931 -0.000288
1.095000 0.071714 0.071714 -0.113456 -0.000276
1.096000 0.033770 0.033770 -0.111606 -0.000285
1.097000 0.041117 0.041117 -0.120869 -0.000272
1.098000 0.039801 0.039801 -0.097867 -0.000306
1.099000 0.016978 0.016978 -0.020134 -0.000288
1.100000 0.026768 0.026768 0.004578 -0.000266
1.101000 -0.016076 -0.016076 0.021058 -0.000267
1.102000 -0.021169 -0.021169 0.025258 -0.000271
1.103000 -0.011049 -0.011049 0.072194 -0.000256
1.104000 -0.071469 -0.071469 0.081788 -0.000299
1.105000 -0.023052 -0.023052 0.071289 -0.000274
1.106000 -0.005851 -0.005851 0.042660 -0.000275
1.107000 -0.036166 -0.036166 -0.006592 -0.000267
1.108000 0.022295 0.022295 0.002802 -0.000284
1.109000 0.016250 0.016250 -0.031679 -0.000327
1.110000 0.018290 0.018290 -0.066652 -0.000272
1.111000 0.064795 0.064795 -0.102976 -0.000266
1.112000 0.037868 0.037868 -0.136348 -0.000275
1.113000 0.058477 0.058477 -0.134390 -0.000264
1.114000 0.115008 0.115008 -0.131186 -0.000286
1.115000 0.092809 0.092809 -0.115370 -0.000292
1.116000 0.100114 0.100114 -0.111645 -0.000300
1.117000 0.075186 0.075186 -0.087507 -0.000265
1.118000 0.035705 0.035705 -0.063610 -0.000303
1.119000 0.062472 0.062472 -0.010844 -0.000299
1.120000 0.001340 0.001340 0.047812 -0.000298
1.121000 -0.013830 -0.013830 0.068833 -0.000281
1.122000 0.019971 0.019971 0.071444 -0.000327
1.123000 -0.049456 -0.049456 0.088751 -0.000306
1.124000 -0.017556 -0.017556 0.086058 -0.000265
1.125000 -0.011279 -0.011279 0.061170 -0.000258
1.126000 -0.038974 -0.038974 0.026420 -0.000249
1.127000 0.006143 0.006143 -0.003028 -0.000300
1.128000 -0.014108 -0.014108 -0.004253 -0.000270
1.129000 -0.013562 -0.013562 -0.036893 -0.000285
1.130000 0.045733 0.045733 -0.051499 -0.000290
1.131000 0.015510 0.015510 -0.054354 -0.000291
1.132000 0.060502 0.060502 -0.135310 -0.000282
1.133000 0.084449 0.084449 -0.126884 -0.000328
1.134000 0.038354 0.038354 -0.116160 -0.000280
1.135000 0.058086 0.058086 -0.115475 -0.000246
1.136000 0.047790 0.047790 -0.070311 -0.000285
1.137000 0.026548 0.026548 -0.068050 -0.000279
1.138000 0.041527 0.041527 -0.050061 -0.000285
1.139000 -0.017617 -0.017617 0.023331 -0.000262
1.140000 -0.003058 -0.003058 -0.001556 -0.000265
1.141000 0.013198 0.013198 0.011274 -0.000268
1.142000 -0.053170 -0.053170 0.054260 -0.000288
1.143000 -0.034368 -0.034368 0.065011 -0.000271
1.144000 -0.034341 -0.034341 0.060336 -0.000283
1.145000 -0.059331 -0.059331 0.059891 -0.000276
1.146000 -0.002600 -0.002600 0.035736 -0.000270
1.147000 -0.026244 -0.026244 0.015676 -0.000248
1.148000 -0.014377 -0.014377 -0.010156 -0.000287
1.149000 0.037344 0.037344 -0.040518 -0.000334
1.150000 -0.007844 -0.007844 -0.042833 -0.000293
1.151000 0.028630 0.028630 -0.089248 -0.000275
1.152000 0.053442 0.053442 -0.087476 -0.000265
1.153000 0.034543 0.034543 -0.085709 -0.000271
1.154000 0.089171 0.089171 -0.134512 -0.000287
1.155000 0.069164 0.069164 -0.142075 -0.000281
1.156000 0.018680 0.018680 -0.084560 -0.000284
1.157000 0.050516 0.050516 -0.058613 -0.000250
1.158000 -0.005766 -0.005766 -0.027712 -0.000284
1.159000 -0.006173 -0.006173 -0.002004 -0.000258
1.160000 -0.000871 -0.000871 0.005527 -0.000249
1.161000 -0.068105 -0.068105 0.031974 -0.000286
1.162000 -0.049059 -0.049059 0.101235 -0.000288
1.163000 -0.051644 -0.051644 0.089820 -0.000277
1.164000 -0.072388 -0.072388 0.063814 -0.000252
1.165000 -0.021294 -0.021294 0.049123 -0.000297
1.166000 -0.065098 -0.065098 0.042662 -0.000256
1.167000 -0.052255 -0.052255 0.045416 -0.000299
1.168000 0.001552 0.001552 0.053531 -0.000248
1.169000 -0.044252 -0.044252 -0.072478 -0.000266
1.170000 0.010398 0.010398 -0.076326 -0.000263
1.171000 0.028598 0.028598 -0.077865 -0.000317
1.172000 0.000879 0.000879 -0.112242 -0.000261
1.173000 0.040733 0.040733 -0.115641 -0.000236
1.174000 0.021217 0.021217 -0.092283 -0.000254
1.175000 0.007721 0.007721 -0.113888 -0.000302
1.176000 0.051470 0.051470 -0.084919 -0.000282
1.177000 -0.007969 -0.007969 -0.068829 -0.000266
1.178000 -0.004004 -0.004004 -0.091108 -0.000287
1.179000 -0.002478 -0.002478 -0.013065 -0.000287
1.180000 -0.069499 -0.069499 -0.014487 -0.000279
1.181000 -0.053952 -0.053952 0.016582 -0.000295
1.182000 -0.072168 -0.072168 0.077167 -0.000280
1.183000 -0.091709 -0.091709 0.066440 -0.000267
1.184000 -0.059172 -0.059172 0.081716 -0.000273
1.185000 -0.085895 -0.085895 0.076368 -0.000264
1.186000 -0.086771 -0.086771 0.018787 -0.000256
1.187000 -0.055172 -0.055172 0.012718 -0.000315
1.188000 -0.076277 -0.076277 -0.001162 -0.000256
1.189000 -0.034808 -0.034808 -0.068870 -0.000282
1.190000 -0.007256 -0.007256 -0.090522 -0.000302
1.191000 -0.027229 -0.027229 -0.115930 -0.000276
1.192000 0.008861 0.008861 -0.094813 -0.000300
1.193000 -0.001313 -0.001313 -0.073923 -0.000315
1.194000 -0.022658 -0.022658 -0.068952 -0.000286
1.195000 0.009971 0.009971 -0.111346 -0.000260
1.196000 -0.034424 -0.034424 -0.098446 -0.000282
1.197000 -0.013438 -0.013438 -0.144517 -0.000293
1.198000 -0.026710 -0.026710 -0.091547 -0.000256
1.199000 -0.076429 -0.076429 -0.020022 -0.000277
1.200000 -0.064636 -0.064636 0.030078 -0.000280
1.201000 -0.080910 -0.080910 0.080768 -0.000277
1.202000 -0.121476 -0.121476 0.102948 -0.000285
1.203000 -0.081193 -0.081193 0.106509 -0.000279
1.204000 -0.130338 -0.130338 0.095884 -0.000293
1.205000 -0.131294 -0.131294 0.027043 -0.000274
1.206000 -0.080322 -0.080322 -0.001429 -0.000248
1.207000 -0.125109 -0.125109 0.000063 -0.000305
1.208000 -0.087521 -0.087521 0.006777 -0.000284
1.209000 -0.081965 -0.081965 -0.031278 -0.000278
1.210000 -0.087427 -0.087427 -0.062896 -0.000281
1.211000 -0.039547 -0.039547 -0.091347 -0.000274
1.212000 -0.055875 -0.055875 -0.108676 -0.000271
1.213000 -0.068451 -0.068451 -0.133679 -0.000282
1.214000 -0.003873 -0.003873 -0.126050 -0.000259
1.215000 -0.045044 -0.045044 -0.111600 -0.000282
1.216000 -0.050535 -0.050535 -0.120476 -0.000275
1.217000 -0.028011 -0.028011 -0.090436 -0.000275
1.218000 -0.077668 -0.077668 -0.068038 -0.000306
1.219000 -0.055934 -0.055934 -0.024300 -0.000325
1.220000 -0.089226 -0.089226 0.013058 -0.000320
1.221000 -0.125055 -0.125055 0.012633 -0.000257
1.222000 -0.087076 -0.087076 0.031004 -0.000285
1.223000 -0.138587 -0.138587 0.058378 -0.000286
1.224000 -0.142898 -0.142898 0.041323 -0.000267
1.225000 -0.110221 -0.110221 0.042996 -0.000255
1.226000 -0.169746 -0.169746 0.025265 -0.000266
1.227000 -0.141004 -0.141004 0.008726 -0.000287
1.228000 -0.120419 -0.120419 0.004806 -0.000245
1.229000 -0.130242 -0.130242 -0.029882 -0.000260
1.230000 -0.066474 -0.066474 -0.079667 -0.000267
1.231000 -0.053867 -0.053867 -0.082548 -0.000266
1.232000 -0.078993 -0.078993 -0.123826 -0.000282
1.233000 -0.028345 -0.028345 -0.131550 -0.000268
1.234000 -0.046496 -0.046496 -0.136574 -0.000276
1.235000 -0.060208 -0.060208 -0.118278 -0.000275
1.236000 -0.037241 -0.037241 -0.093751 -0.000280
1.237000 -0.074391 -0.074391 -0.070401 -0.000265
1.238000 -0.064261 -0.064261 -0.060874 -0.000276
1.239000 -0.076879 -0.076879 0.010447 -0.000292
1.240000 -0.146448 -0.146448 0.029407 -0.000238
1.241000 -0.108654 -0.108654 0.032489 -0.000280
1.242000 -0.148242 -0.148242 0.071982 -0.000273
1.243000 -0.166459 -0.166459 0.077193 -0.000242
1.244000 -0.124006 -0.124006 0.066376 -0.000261
1.245000 -0.168867 -0.168867 0.091668 -0.000310
1.246000 -0.148821 -0.148821 0.034402 -0.000292
1.247000 -0.113570 -0.113570 0.011420 -0.000271
1.248000 -0.138919 -0.138919 0.001481 -0.000247
1.249000 -0.086289 -0.086289 -0.073717 -0.000269
1.250000 -0.067497 -0.067497 -0.097863 -0.000297
1.251000 -0.085348 -0.085348 -0.101954 -0.000290
1.252000 -0.031185 -0.031185 -0.131613 -0.000273
1.253000 -0.054637 -0.054637 -0.121448 -0.000296
1.254000 -0.068469 -0.068469 -0.100717 -0.000289
1.255000 -0.039192 -0.039192 -0.103132 -0.000280
1.256000 -0.092758 -0.092758 -0.078626 -0.000286
1.257000 -0.068306 -0.068306 -0.067917 -0.000259
1.258000 -0.059880 -0.059880 -0.065574 -0.000272
1.259000 -0.115628 -0.115628 -0.012550 -0.000260
1.260000 -0.093487 -0.093487 -0.005926 -0.000301
1.261000 -0.128143 -0.128143 0.041801 -0.000266
1.262000 -0.160429 -0.160429 0.066505 -0.000307
1.263000 -0.112124 -0.112124 0.044989 -0.000264
1.264000 -0.156956 -0.156956 0.069123 -0.000273
1.265000 -0.166087 -0.166087 0.098281 -0.000275
1.266000 -0.128291 -0.128291 0.100769 -0.000279
1.267000 -0.154674 -0.154674 0.059756 -0.000305
1.268000 -0.121178 -0.121178 -0.037047 -0.000295
1.269000 -0.093562 -0.093562 -0.076761 -0.000305
1.270000 -0.110049 -0.110049 -0.088299 -0.000279
1.271000 -0.058941 -0.058941 -0.112811 -0.000278
1.272000 -0.062835 -0.062835 -0.136490 -0.000283
1.273000 -0.068746 -0.068746 -0.150470 -0.000282
1.274000 -0.034026 -0.034026 -0.118110 -0.000297
1.275000 -0.066206 -0.066206 -0.104852 -0.000273
1.276000 -0.054317 -0.054317 -0.083931 -0.000275
1.277000 -0.047145 -0.047145 -0.027702 -0.000250
1.278000 -0.110283 -0.110283 -0.006214 -0.000282
1.279000 -0.090209 -0.090209 0.042792 -0.000278
1.280000 -0.107756 -0.107756 0.035726 -0.000302
1.281000 -0.150486 -0.150486 0.030321 -0.000269
1.282000 -0.123829 -0.123829 0.011622 -0.000300
1.283000 -0.147618 -0.147618 0.043909 -0.000261
1.284000 -0.156030 -0.156030 0.070352 -0.000252
1.285000 -0.127364 -0.127364 0.075381 -0.000265
1.286000 -0.156683 -0.156683 0.051782 -0.000265
1.287000 -0.133114 -0.133114 -0.014942 -0.000278
1.288000 -0.096946 -0.096946 -0.030802 -0.000268
1.289000 -0.127041 -0.127041 -0.062267 -0.000279
1.290000 -0.078115 -0.078115 -0.051880 -0.000312
1.291000 -0.083406 -0.083406 -0.040633 -0.000278
1.292000 -0.091151 -0.091151 -0.067543 -0.000281
1.293000 -0.040119 -0.040119 -0.092191 -0.000266
1.294000 -0.065876 -0.065876 -0.111362 -0.000292
1.295000 -0.062829 -0.062829 -0.121380 -0.000273
1.296000 -0.055921 -0.055921 -0.062285 -0.000275
1.297000 -0.112153 -0.112153 -0.041908 -0.000254
1.298000 -0.082264 -0.082264 -0.050686 -0.000307
1.299000 -0.098970 -0.098970 0.007333 -0.000246
1.300000 -0.166214 -0.166214 0.046466 -0.000286
1.301000 -0.098438 -0.098438 0.059319 -0.000308
1.302000 -0.154988 -0.154988 0.057696 -0.000298
1.303000 -0.206059 -0.206059 0.061878 -0.000275
1.304000 -0.155120 -0.155120 0.052930 -0.000302
1.305000 -0.182784 -0.182784 0.087809 -0.000307
1.306000 -0.165532 -0.165532 0.060952 -0.000267
1.307000 -0.124821 -0.124821 0.012653 -0.000263
1.308000 -0.152122 -0.152122 -0.007322 -0.000298
1.309000 -0.086978 -0.086978 -0.048814 -0.000308
1.310000 -0.092072 -0.092072 -0.023421 -0.000269
1.311000 -0.119319 -0.119319 -0.045746 -0.000309
1.312000 -0.063872 -0.063872 -0.091383 -0.000289
1.313000 -0.076951 -0.076951 -0.070772 -0.000277
1.314000 -0.074951 -0.074951 -0.122112 -0.000291
1.315000 -0.028638 -0.028638 -0.151757 -0.000270
1.316000 -0.080039 -0.080039 -0.124393 -0.000268
1.317000 -0.066011 -0.066011 -0.093359 -0.000297
1.318000 -0.069792 -0.069792 -0.006748 -0.000290
1.319000 -0.128150 -0.128150 0.015572 -0.000268
1.320000 -0.105017 -0.105017 0.014055 -0.000300
1.321000 -0.134613 -0.134613 0.030774 -0.000291
1.322000 -0.178146 -0.178146 0.097624 -0.000289
1.323000 -0.131118 -0.131118 0.104881 -0.000261
1.324000 -0.171338 -0.171338 0.095878 -0.000256
1.325000 -0.170657 -0.170657 0.067639 -0.000281
1.326000 -0.123566 -0.123566 0.048213 -0.000275
1.327000 -0.154195 -0.154195 0.041063 -0.000261
1.328000 -0.109421 -0.109421 -0.003675 -0.000281
1.329000 -0.096023 -0.096023 -0.038091 -0.000242
1.330000 -0.114900 -0.114900 -0.070141 -0.000271
1.331000 -0.051329 -0.051329 -0.107712 -0.000274
1.332000 -0.062351 -0.062351 -0.119778 -0.000280
1.333000 -0.059233 -0.059233 -0.119835 -0.000272
1.334000 -0.031204 -0.031204 -0.106687 -0.000290
1.335000 -0.047489 -0.047489 -0.087873 -0.000294
1.336000 -0.042962 -0.042962 -0.063849 -0.000279
1.337000 -0.025523 -0.025523 -0.016735 -0.000265
1.338000 -0.072625 -0.072625 -0.021027 -0.000264
1.339000 -0.076178 -0.076178 -0.019357 -0.000285
1.340000 -0.107193 -0.107193 -0.006550 -0.000285
1.341000 -0.140802 -0.140802 0.043349 -0.000261
1.342000 -0.128429 -0.128429 0.080701 -0.000229
1.343000 -0.159776 -0.159776 0.088243 -0.000291
1.344000 -0.160841 -0.160841 0.054649 -0.000274
1.345000 -0.117063 -0.117063 0.061361 -0.000276
1.346000 -0.138778 -0.138778 0.049988 -0.000244
1.347000 -0.104810 -0.104810 0.031814 -0.000282
1.348000 -0.095639 -0.095639 0.018743 -0.000280
1.349000 -0.100150 -0.100150 -0.026254 -0.000261
1.350000 -0.032483 -0.032483 -0.074335 -0.000282
1.351000 -0.013046 -0.013046 -0.076733 -0.000271
1.352000 -0.010239 -0.010239 -0.105530 -0.000260
1.353000 0.017485 0.017485 -0.103934 -0.000262
1.354000 -0.028315 -0.028315 -0.098365 -0.000266
1.355000 -0.035846 -0.035846 -0.102099 -0.000284
1.356000 -0.013270 -0.013270 -0.081127 -0.000288
1.357000 -0.066723 -0.066723 -0.047505 -0.000274
1.358000 -0.028915 -0.028915 -0.044408 -0.000285
1.359000 -0.055501 -0.055501 -0.003010 -0.000271
1.360000 -0.112674 -0.112674 0.023735 -0.000284
1.361000 -0.126958 -0.126958 0.065252 -0.000288
1.362000 -0.190811 -0.190811 0.090432 -0.000328
1.363000 -0.219038 -0.219038 0.069927 -0.000262
1.364000 -0.160770 -0.160770 0.090360 -0.000263
1.365000 -0.201828 -0.201828 0.115920 -0.000286
1.366000 -0.162947 -0.162947 0.041786 -0.000270
1.367000 -0.127948 -0.127948 0.025150 -0.000252
1.368000 -0.155456 -0.155456 0.020766 -0.000302
1.369000 -0.114713 -0.114713 -0.012911 -0.000263
1.370000 -0.095283 -0.095283 -0.031225 -0.000261
1.371000 -0.103050 -0.103050 -0.084172 -0.000273
1.372000 -0.037648 -0.037648 -0.107513 -0.000244
1.373000 -0.063170 -0.063170 -0.103024 -0.000303
1.374000 -0.078778 -0.078778 -0.102706 -0.000284
1.375000 -0.048868 -0.048868 -0.096874 -0.000268
1.376000 -0.104660 -0.104660 -0.060133 -0.000269
1.377000 -0.097102 -0.097102 -0.032619 -0.000287
1.378000 -0.101606 -0.101606 -0.065235 -0.000254
1.379000 -0.146075 -0.146075 -0.000695 -0.000287
1.380000 -0.111764 -0.111764 -0.004169 -0.000263
1.381000 -0.127651 -0.127651 0.012188 -0.000275
1.382000 -0.157021 -0.157021 0.032575 -0.000279
1.383000 -0.135814 -0.135814 0.077889 -0.000267
1.384000 -0.172874 -0.172874 0.096769 -0.000269
1.385000 -0.161894 -0.161894 0.145680 -0.000268
1.386000 -0.131953 -0.131953 0.121133 -0.000257
1.387000 -0.162576 -0.162576 0.084061 -0.000294
1.388000 -0.109189 -0.109189 0.029952 -0.000297
1.389000 -0.093471 -0.093471 -0.086572 -0.000299
1.390000 -0.096739 -0.096739 -0.098339 -0.000270
1.391000 -0.033871 -0.033871 -0.119630 -0.000247
1.392000 -0.061269 -0.061269 -0.110738 -0.000294
1.393000 -0.053056 -0.053056 -0.111340 -0.000262
1.394000 -0.025330 -0.025330 -0.097352 -0.000286
1.395000 -0.076328 -0.076328 -0.066876 -0.000273
1.396000 -0.077501 -0.077501 -0.081753 -0.000273
1.397000 -0.074696 -0.074696 -0.063562 -0.000278
1.398000 -0.107385 -0.107385 -0.038910 -0.000279
1.399000 -0.088160 -0.088160 0.000797 -0.000286
1.400000 -0.123441 -0.123441 0.041707 -0.000265
1.401000 -0.155067 -0.155067 0.051488 -0.000279
1.402000 -0.126470 -0.126470 0.106332 -0.000284
1.403000 -0.160638 -0.160638 0.150681 -0.000290
1.404000 -0.149053 -0.149053 0.102282 -0.000273
1.405000 -0.113131 -0.113131 0.089482 -0.000242
1.406000 -0.153099 -0.153099 0.068779 -0.000281
1.407000 -0.113420 -0.113420 0.031548 -0.000281
1.408000 -0.096806 -0.096806 0.037156 -0.000261
1.409000 -0.121045 -0.121045 -0.016055 -0.000296
1.410000 -0.044156 -0.044156 -0.055280 -0.000288
1.411000 -0.054750 -0.054750 -0.081264 -0.000284
1.412000 -0.047707 -0.047707 -0.104035 -0.000278
1.413000 -0.015085 -0.015085 -0.093879 -0.000287
1.414000 -0.066653 -0.066653 -0.046462 -0.000287
1.415000 -0.038080 -0.038080 -0.032813 -0.000298
1.416000 -0.025124 -0.025124 0.025384 -0.000264
1.417000 -0.079849 -0.079849 0.039296 -0.000284
1.418000 -0.050671 -0.050671 0.030006 -0.000272
1.419000 -0.075045 -0.075045 0.084280 -0.000254
1.420000 -0.114132 -0.114132 0.064291 -0.000283
1.421000 -0.087376 -0.087376 0.063503 -0.000306
1.422000 -0.153977 -0.153977 0.098370 -0.000280
1.423000 -0.128440 -0.128440 0.063528 -0.000255
1.424000 -0.089056 -0.089056 0.059953 -0.000282
1.425000 -0.134310 -0.134310 0.075894 -0.000280
1.426000 -0.099426 -0.099426 0.072312 -0.000287
1.427000 -0.070585 -0.070585 0.024542 -0.000275
1.428000 -0.097072 -0.097072 0.031577 -0.000262
1.429000 -0.031708 -0.031708 -0.024104 -0.000276
1.430000 -0.042059 -0.042059 -0.040430 -0.000303
1.431000 -0.032075 -0.032075 -0.097990 -0.000245
1.432000 0.014071 0.014071 -0.098232 -0.000287
1.433000 -0.008104 -0.008104 -0.102095 -0.000269
1.434000 0.006501 0.006501 -0.143790 -0.000298
1.435000 0.024045 0.024045 -0.131637 -0.000264
1.436000 -0.030157 -0.030157 -0.098932 -0.000271
1.437000 0.002848 0.002848 -0.080306 -0.000273
1.438000 -0.020250 -0.020250 -0.063094 -0.000276
1.439000 -0.062474 -0.062474 -0.001888 -0.000269
1.440000 -0.038927 -0.038927 0.052550 -0.000263
1.441000 -0.104957 -0.104957 0.110270 -0.000272
1.442000 -0.100224 -0.100224 0.119640 -0.000291
1.443000 -0.086302 -0.086302 0.140801 -0.000272
1.444000 -0.154584 -0.154584 0.103791 -0.000278
1.445000 -0.141449 -0.141449 0.032052 -0.000262
1.446000 -0.092390 -0.092390 0.034682 -0.000317
1.447000 -0.112689 -0.112689 0.018227 -0.000254
1.448000 -0.079083 -0.079083 0.001354 -0.000280
1.449000 -0.083285 -0.083285 -0.009799 -0.000269
1.450000 -0.081771 -0.081771 -0.102791 -0.000273
1.451000 -0.017522 -0.017522 -0.119300 -0.000259
1.452000 -0.053708 -0.053708 -0.122614 -0.000266
1.453000 -0.036733 -0.036733 -0.144970 -0.000284
1.454000 -0.007453 -0.007453 -0.132889 -0.000306
1.455000 -0.057080 -0.057080 -0.129106 -0.000285
1.456000 -0.035388 -0.035388 -0.114767 -0.000262
1.457000 -0.062617 -0.062617 -0.077740 -0.000303
1.458000 -0.086507 -0.086507 -0.057097 -0.000267
1.459000 -0.081640 -0.081640 0.015830 -0.000266
1.460000 -0.120777 -0.120777 0.033890 -0.000301
1.461000 -0.131563 -0.131563 0.037317 -0.000310
1.462000 -0.121443 -0.121443 0.056833 -0.000236
1.463000 -0.182472 -0.182472 0.105585 -0.000274
1.464000 -0.147860 -0.147860 0.072174 -0.000270
1.465000 -0.168620 -0.168620 0.066386 -0.000277
1.466000 -0.179960 -0.179960 0.041727 -0.000272
1.467000 -0.108244 -0.108244 0.025845 -0.000243
1.468000 -0.141704 -0.141704 0.031707 -0.000244
1.469000 -0.116379 -0.116379 -0.013519 -0.000291
1.470000 -0.060033 -0.060033 -0.047637 -0.000281
1.471000 -0.102860 -0.102860 -0.067761 -0.000267
1.472000 -0.057238 -0.057238 -0.155222 -0.000283
1.473000 -0.025531 -0.025531 -0.170561 -0.000268
1.474000 -0.086739 -0.086739 -0.102969 -0.000257
1.475000 -0.044155 -0.044155 -0.088496 -0.000275
1.476000 -0.079940 -0.079940 -0.060875 -0.000256
1.477000 -0.109198 -0.109198 -0.079153 -0.000253
1.478000 -0.068527 -0.068527 -0.045754 -0.000293
1.479000 -0.130401 -0.130401 0.010811 -0.000256
1.480000 -0.152591 -0.152591 0.010699 -0.000311
1.481000 -0.121603 -0.121603 0.012934 -0.000272
1.482000 -0.189400 -0.189400 0.048481 -0.000275
1.483000 -0.170649 -0.170649 0.054145 -0.000280
1.484000 -0.149397 -0.149397 0.059357 -0.000276
1.485000 -0.206083 -0.206083 0.075221 -0.000304
1.486000 -0.138544 -0.138544 0.042199 -0.000278
1.487000 -0.147779 -0.147779 0.040011 -0.000300
1.488000 -0.151207 -0.151207 -0.000560 -0.000260
1.489000 -0.098378 -0.098378 -0.032303 -0.000238
1.490000 -0.124026 -0.124026 -0.060537 -0.000295
1.491000 -0.082974 -0.082974 -0.103186 -0.000296
1.492000 -0.055238 -0.055238 -0.107328 -0.000262
1.493000 -0.088624 -0.088624 -0.115077 -0.000272
1.494000 -0.039689 -0.039689 -0.124961 -0.000286
1.495000 -0.057187 -0.057187 -0.107669 -0.000261
1.496000 -0.094145 -0.094145 -0.084530 -0.000274
1.497000 -0.063326 -0.063326 -0.065529 -0.000287
1.498000 -0.122655 -0.122655 -0.041650 -0.000285
1.499000 -0.133703 -0.133703 0.008905 -0.000290
1.500000 -0.118966 -0.118966 0.024846 -0.000320
1.501000 -0.175115 -0.175115 0.046529 -0.000265
1.502000 -0.175925 -0.175925 0.052154 -0.000301
1.503000 -0.181885 -0.181885 0.093352 -0.000260
1.504000 -0.201795 -0.201795 0.124379 -0.000274
1.505000 -0.150887 -0.150887 0.072251 -0.000258
1.506000 -0.160845 -0.160845 0.062809 -0.000248
1.507000 -0.155467 -0.155467 -0.013611 -0.000282
1.508000 -0.111997 -0.111997 -0.035785 -0.000264
1.509000 -0.115352 -0.115352 -0.113642 -0.000298
1.510000 -0.087022 -0.087022 -0.106996 -0.000278
1.511000 -0.086049 -0.086049 -0.057700 -0.000282
1.512000 -0.108718 -0.108718 -0.055530 -0.000280
1.513000 -0.057763 -0.057763 -0.125405 -0.000291
1.514000 -0.068554 -0.068554 -0.101530 -0.000295
1.515000 -0.078844 -0.078844 -0.120572 -0.000296
1.516000 -0.059555 -0.059555 -0.120735 -0.000272
1.517000 -0.106348 -0.106348 -0.083687 -0.000280
1.518000 -0.117908 -0.117908 -0.024155 -0.000289
1.519000 -0.115298 -0.115298 0.027083 -0.000265
1.520000 -0.178975 -0.178975 0.036006 -0.000290
1.521000 -0.150932 -0.150932 0.033567 -0.000266
1.522000 -0.176096 -0.176096 0.066369 -0.000267
1.523000 -0.226649 -0.226649 0.098782 -0.000300
1.524000 -0.177801 -0.177801 0.105421 -0.000282
1.525000 -0.202291 -0.202291 0.109198 -0.000291
1.526000 -0.204837 -0.204837 0.060807 -0.000297
1.527000 -0.167126 -0.167126 0.038707 -0.000278
1.528000 -0.213483 -0.213483 -0.008086 -0.000284
1.529000 -0.166743 -0.166743 -0.057479 -0.000272
1.530000 -0.147607 -0.147607 -0.082468 -0.000313
1.531000 -0.193340 -0.193340 -0.060174 -0.000282
1.532000 -0.119750 -0.119750 -0.122587 -0.000292
1.533000 -0.126625 -0.126625 -0.104418 -0.000273
1.534000 -0.145288 -0.145288 -0.157435 -0.000263
1.535000 -0.091523 -0.091523 -0.173686 -0.000265
1.536000 -0.119429 -0.119429 -0.139565 -0.000287
1.537000 -0.135230 -0.135230 -0.089856 -0.000308
1.538000 -0.081326 -0.081326 -0.097011 -0.000238
1.539000 -0.132491 -0.132491 -0.035603 -0.000298
1.540000 -0.079747 -0.079747 -0.047341 -0.000259
1.541000 -0.058710 -0.058710 -0.018476 -0.000312
1.542000 -0.109616 -0.109616 -0.010056 -0.000268
1.543000 -0.028979 -0.028979 -0.013711 -0.000304
1.544000 -0.042811 -0.042811 0.030903 -0.000281
1.545000 -0.039865 -0.039865 -0.000150 -0.000260
1.546000 0.016194 0.016194 -0.006963 -0.000296
1.547000 0.012690 0.012690 -0.039582 -0.000298
1.548000 0.081371 0.081371 -0.087197 -0.000277
1.549000 0.148412 0.148412 -0.112454 -0.000279
1.550000 0.162846 0.162846 -0.118805 -0.000283
1.551000 0.231151 0.231151 -0.141270 -0.000282
1.552000 0.279388 0.279388 -0.160044 -0.000255
1.553000 0.281287 0.281287 -0.140113 -0.000261
1.554000 0.325108 0.325108 -0.122064 -0.000326
1.555000 0.301045 0.301045 -0.032607 -0.000283
1.556000 0.271994 0.271994 0.067239 -0.000307
1.557000 0.283080 0.283080 0.159789 -0.000298
1.558000 0.201455 0.201455 0.267586 -0.000287
1.559000 0.196997 0.196997 0.319980 -0.000286
1.560000 0.135396 0.135396 0.400142 -0.000278
1.561000 0.058364 0.058364 0.403063 -0.000269
1.562000 0.074314 0.074314 0.365336 -0.000270
1.563000 0.013415 0.013415 0.365680 -0.000319
1.564000 -0.043514 -0.043514 0.344846 -0.000282
1.565000 -0.059634 -0.059634 0.340587 -0.000261
1.566000 -0.140879 -0.140879 0.361313 -0.000280
1.567000 -0.144477 -0.144477 0.291447 -0.000308
1.568000 -0.157194 -0.157194 0.303876 -0.000283
1.569000 -0.178860 -0.178860 0.263832 -0.000302
1.570000 -0.122507 -0.122507 0.218834 -0.000303
1.571000 -0.109398 -0.109398 0.164789 -0.000331
1.572000 -0.127339 -0.127339 0.093467 -0.000292
1.573000 -0.081256 -0.081256 0.077065 -0.000280
1.574000 -0.132983 -0.132983 0.086480 -0.000270
1.575000 -0.166876 -0.166876 0.077651 -0.000256
1.576000 -0.135580 -0.135580 0.093864 -0.000296
1.577000 -0.209100 -0.209100 0.119254 -0.000266
1.578000 -0.199604 -0.199604 0.135987 -0.000281
1.579000 -0.203668 -0.203668 0.163336 -0.000288
1.580000 -0.247727 -0.247727 0.167677 -0.000280
1.581000 -0.219074 -0.219074 0.170709 -0.000282
1.582000 -0.244436 -0.244436 0.179365 -0.000288
1.583000 -0.259203 -0.259203 0.180869 -0.000310
1.584000 -0.201747 -0.201747 0.121785 -0.000295
1.585000 -0.234809 -0.234809 0.092718 -0.000264
1.586000 -0.212433 -0.212433 0.063057 -0.000287
1.587000 -0.158767 -0.158767 0.017451 -0.000269
1.588000 -0.179374 -0.179374 -0.033874 -0.000300
1.589000 -0.132825 -0.132825 -0.059492 -0.000305
1.590000 -0.108598 -0.108598 -0.064963 -0.000286
1.591000 -0.130103 -0.130103 -0.084928 -0.000250
1.592000 -0.061364 -0.061364 -0.118028 -0.000301
1.593000 -0.085058 -0.085058 -0.100537 -0.000297
1.594000 -0.075141 -0.075141 -0.113563 -0.000284
1.595000 -0.054266 -0.054266 -0.065280 -0.000301
1.596000 -0.110467 -0.110467 -0.050850 -0.000272
1.597000 -0.091416 -0.091416 -0.061935 -0.000275
1.598000 -0.091630 -0.091630 -0.040753 -0.000274
1.599000 -0.150642 -0.150642 0.023280 -0.000247
1.600000 -0.128486 -0.128486 0.047202 -0.000270
1.601000 -0.154876 -0.154876 0.056815 -0.000297
1.602000 -0.194216 -0.194216 0.097505 -0.000283
1.603000 -0.156619 -0.156619 0.104571 -0.000279
1.604000 -0.191398 -0.191398 0.113185 -0.000283
1.605000 -0.185613 -0.185613 0.099935 -0.000301
1.606000 -0.157898 -0.157898 0.087115 -0.000269
1.607000 -0.176380 -0.176380 0.053690 -0.000288
1.608000 -0.129075 -0.129075 -0.047577 -0.000306
1.609000 -0.105775 -0.105775 -0.099447 -0.000296
1.610000 -0.125984 -0.125984 -0.096198 -0.000282
1.611000 -0.079697 -0.079697 -0.071081 -0.000275
1.612000 -0.093788 -0.093788 -0.068686 -0.000299
1.613000 -0.090571 -0.090571 -0.090182 -0.000256
1.614000 -0.043546 -0.043546 -0.056439 -0.000278
1.615000 -0.068446 -0.068446 -0.075153 -0.000262
1.616000 -0.083388 -0.083388 -0.059949 -0.000313
1.617000 -0.081029 -0.081029 -0.046146 -0.000288
1.618000 -0.132132 -0.132132 -0.021680 -0.000282
1.619000 -0.113614 -0.113614 -0.013308 -0.000250
1.620000 -0.151801 -0.151801 0.031453 -0.000310
1.621000 -0.171073 -0.171073 0.045882 -0.000275
1.622000 -0.145172 -0.145172 0.048119 -0.000277
1.623000 -0.176917 -0.176917 0.073359 -0.000272
1.624000 -0.171992 -0.171992 0.054992 -0.000291
1.625000 -0.141188 -0.141188 0.060804 -0.000273
1.626000 -0.171945 -0.171945 0.053965 -0.000274
1.627000 -0.127857 -0.127857 0.038441 -0.000279
1.628000 -0.103959 -0.103959 0.014465 -0.000295
1.629000 -0.133240 -0.133240 -0.046089 -0.000293
1.630000 -0.066977 -0.066977 -0.090528 -0.000290
1.631000 -0.074906 -0.074906 -0.093998 -0.000262
1.632000 -0.054554 -0.054554 -0.115510 -0.000241
1.633000 -0.009446 -0.009446 -0.107475 -0.000307
1.634000 -0.081307 -0.081307 -0.075742 -0.000274
1.635000 -0.074204 -0.074204 -0.062723 -0.000274
1.636000 -0.065599 -0.065599 -0.040084 -0.000239
1.637000 -0.115752 -0.115752 -0.028432 -0.000290
1.638000 -0.086054 -0.086054 -0.010874 -0.000279
1.639000 -0.126181 -0.126181 0.071605 -0.000293
1.640000 -0.145668 -0.145668 0.047354 -0.000293
1.641000 -0.120981 -0.120981 0.085119 -0.000279
1.642000 -0.177660 -0.177660 0.127313 -0.000294
1.643000 -0.175188 -0.175188 0.091076 -0.000269
1.644000 -0.146721 -0.146721 0.105176 -0.000264
1.645000 -0.186352 -0.186352 0.086914 -0.000295
1.646000 -0.152791 -0.152791 0.041137 -0.000252
1.647000 -0.131814 -0.131814 0.012056 -0.000275
1.648000 -0.152625 -0.152625 0.019353 -0.000277
1.649000 -0.068282 -0.068282 -0.027609 -0.000257
1.650000 -0.079483 -0.079483 -0.061649 -0.000273
1.651000 -0.081204 -0.081204 -0.092356 -0.000313
1.652000 -0.023756 -0.023756 -0.105476 -0.000312
1.653000 -0.067745 -0.067745 -0.086443 -0.000284
1.654000 -0.059468 -0.059468 -0.107251 -0.000311
1.655000 -0.017631 -0.017631 -0.086018 -0.000266
1.656000 -0.086888 -0.086888 -0.066027 -0.000286
1.657000 -0.084842 -0.084842 -0.055628 -0.000275
1.658000 -0.079003 -0.079003 -0.016717 -0.000284
1.659000 -0.133410 -0.133410 0.030580 -0.000299
1.660000 -0.101068 -0.101068 0.070277 -0.000255
1.661000 -0.128464 -0.128464 0.093660 -0.000284
1.662000 -0.146013 -0.146013 0.106714 -0.000283
1.663000 -0.119333 -0.119333 0.098623 -0.000303
1.664000 -0.159589 -0.159589 0.090605 -0.000287
1.665000 -0.143141 -0.143141 0.064094 -0.000280
1.666000 -0.124536 -0.124536 0.042385 -0.000291
1.667000 -0.147919 -0.147919 0.024222 -0.000247
1.668000 -0.104673 -0.104673 -0.000321 -0.000293
1.669000 -0.092600 -0.092600 0.011014 -0.000274
1.670000 -0.092291 -0.092291 -0.037284 -0.000283
1.671000 -0.032562 -0.032562 -0.095577 -0.000273
1.672000 -0.047136 -0.047136 -0.097589 -0.000307
1.673000 -0.041196 -0.041196 -0.119388 -0.000292
1.674000 -0.020275 -0.020275 -0.122798 -0.000306
1.675000 -0.072716 -0.072716 -0.083859 -0.000252
1.676000 -0.053393 -0.053393 -0.056476 -0.000248
1.677000 -0.058261 -0.058261 -0.026955 -0.000293
1.678000 -0.106358 -0.106358 0.001121 -0.000266
1.679000 -0.077442 -0.077442 0.058433 -0.000281
1.680000 -0.119051 -0.119051 0.139078 -0.000258
1.681000 -0.127110 -0.127110 0.153660 -0.000266
1.682000 -0.110386 -0.110386 0.097419 -0.000288
1.683000 -0.164204 -0.164204 0.061763 -0.000262
1.684000 -0.123316 -0.123316 0.022681 -0.000300
1.685000 -0.111278 -0.111278 0.028913 -0.000269
1.686000 -0.141429 -0.141429 0.032110 -0.000250
1.687000 -0.082926 -0.082926 -0.000732 -0.000271
1.688000 -0.103316 -0.103316 -0.015724 -0.000283
1.689000 -0.104752 -0.104752 -0.069108 -0.000267
1.690000 -0.057248 -0.057248 -0.100558 -0.000264
1.691000 -0.070748 -0.070748 -0.111903 -0.000284
1.692000 -0.058130 -0.058130 -0.106172 -0.000258
1.693000 -0.024611 -0.024611 -0.074027 -0.000288
1.694000 -0.055567 -0.055567 -0.063228 -0.000286
1.695000 -0.043192 -0.043192 -0.061629 -0.000293
1.696000 -0.040694 -0.040694 -0.066042 -0.000304
1.697000 -0.084145 -0.084145 -0.035935 -0.000298
1.698000 -0.053397 -0.053397 -0.049871 -0.000274
1.699000 -0.092066 -0.092066 0.037980 -0.000283
1.700000 -0.110807 -0.110807 0.058731 -0.000288
1.701000 -0.078746 -0.078746 0.106234 -0.000299
1.702000 -0.146029 -0.146029 0.126265 -0.000268
1.703000 -0.123542 -0.123542 0.105748 -0.000282
1.704000 -0.097143 -0.097143 0.093677 -0.000295
1.705000 -0.153928 -0.153928 0.084120 -0.000269
1.706000 -0.108671 -0.108671 0.042870 -0.000276
1.707000 -0.092181 -0.092181 0.012258 -0.000289
1.708000 -0.107041 -0.107041 0.002991 -0.000295
1.709000 -0.043607 -0.043607 -0.020013 -0.000284
1.710000 -0.075625 -0.075625 -0.013718 -0.000250
1.711000 -0.056470 -0.056470 -0.103206 -0.000283
1.712000 0.000593 0.000593 -0.154761 -0.000282
1.713000 -0.041152 -0.041152 -0.124142 -0.000283
1.714000 -0.014853 -0.014853 -0.098729 -0.000273
1.715000 -0.004970 -0.004970 -0.038681 -0.000276
1.716000 -0.048112 -0.048112 -0.016698 -0.000258
1.717000 -0.021595 -0.021595 -0.015720 -0.000285
1.718000 -0.056086 -0.056086 0.030254 -0.000285
1.719000 -0.108096 -0.108096 0.035220 -0.000274
1.720000 -0.069418 -0.069418 0.048280 -0.000293
1.721000 -0.121714 -0.121714 0.063836 -0.000283
1.722000 -0.116438 -0.116438 0.096431 -0.000278
1.723000 -0.091731 -0.091731 0.063743 -0.000275
1.724000 -0.130324 -0.130324 0.077962 -0.000290
1.725000 -0.096225 -0.096225 0.053593 -0.000277
1.726000 -0.088458 -0.088458 0.067710 -0.000277
1.727000 -0.098661 -0.098661 0.049392 -0.000282
1.728000 -0.053078 -0.053078 -0.007968 -0.000280
1.729000 -0.059197 -0.059197 -0.035966 -0.000298
1.730000 -0.049925 -0.049925 -0.062671 -0.000307
1.731000 -0.011935 -0.011935 -0.090766 -0.000288
1.732000 -0.033050 -0.033050 -0.098881 -0.000253
1.733000 -0.004968 -0.004968 -0.082050 -0.000306
1.734000 0.000898 0.000898 -0.080654 -0.000261
1.735000 -0.031521 -0.031521 -0.060352 -0.000240
1.736000 0.001069 0.001069 -0.066279 -0.000293
1.737000 -0.046531 -0.046531 -0.042183 -0.000286
1.738000 -0.064977 -0.064977 -0.020041 -0.000261
1.739000 -0.038025 -0.038025 0.020601 -0.000294
1.740000 -0.102038 -0.102038 0.045756 -0.000269
1.741000 -0.095238 -0.095238 0.075241 -0.000275
1.742000 -0.074321 -0.074321 0.096034 -0.000286
1.743000 -0.140758 -0.140758 0.113390 -0.000277
1.744000 -0.104179 -0.104179 0.117452 -0.000259
1.745000 -0.122646 -0.122646 0.110349 -0.000310
1.746000 -0.123377 -0.123377 0.056366 -0.000281
1.747000 -0.062493 -0.062493 0.043051 -0.000284
1.748000 -0.098612 -0.098612 0.061646 -0.000307
1.749000 -0.069738 -0.069738 0.009185 -0.000284
1.750000 -0.017457 -0.017457 -0.047708 -0.000271
1.751000 -0.046116 -0.046116 -0.080206 -0.000283
1.752000 -0.011842 -0.011842 -0.094930 -0.000283
1.753000 -0.001412 -0.001412 -0.092401 -0.000295
1.754000 -0.055729 -0.055729 -0.087424 -0.000287
1.755000 0.013748 0.013748 -0.081223 -0.000280
1.756000 0.000912 0.000912 -0.058300 -0.000276
1.757000 -0.037164 -0.037164 -0.049870 -0.000279
1.758000 -0.012407 -0.012407 -0.002162 -0.000264
1.759000 -0.091428 -0.091428 0.065981 -0.000287
1.760000 -0.070238 -0.070238 0.067881 -0.000286
1.761000 -0.063491 -0.063491 0.070019 -0.000266
1.762000 -0.126084 -0.126084 0.070091 -0.000275
1.763000 -0.101935 -0.101935 0.073659 -0.000292
1.764000 -0.095347 -0.095347 0.110405 -0.000264
1.765000 -0.135984 -0.135984 0.128990 -0.000266
1.766000 -0.059416 -0.059416 0.060781 -0.000242
1.767000 -0.086207 -0.086207 0.032856 -0.000278
1.768000 -0.086285 -0.086285 -0.021497 -0.000289
1.769000 -0.021839 -0.021839 -0.049050 -0.000276
1.770000 -0.066670 -0.066670 -0.055391 -0.000255
1.771000 -0.031991 -0.031991 -0.063669 -0.000289
1.772000 -0.002268 -0.002268 -0.054355 -0.000262
1.773000 -0.034832 -0.034832 -0.073241 -0.000297
1.774000 0.003134 0.003134 -0.113458 -0.000258
1.775000 -0.024851 -0.024851 -0.081952 -0.000278
1.776000 -0.052839 -0.052839 -0.048112 -0.000291
1.777000 -0.024636 -0.024636 -0.030598 -0.000272
1.778000 -0.075564 -0.075564 0.048969 -0.000261
1.779000 -0.076318 -0.076318 0.084301 -0.000319
1.780000 -0.053910 -0.053910 0.081643 -0.000277
1.781000 -0.124209 -0.124209 0.098995 -0.000269
1.782000 -0.104022 -0.104022 0.085566 -0.000270
1.783000 -0.152374 -0.152374 0.136541 -0.000284
1.784000 -0.162253 -0.162253 0.108438 -0.000267
1.785000 -0.106465 -0.106465 0.074125 -0.000286
1.786000 -0.135729 -0.135729 0.049837 -0.000303
1.787000 -0.110395 -0.110395 -0.014890 -0.000254
1.788000 -0.080843 -0.080843 -0.023843 -0.000268
1.789000 -0.082347 -0.082347 -0.043240 -0.000291
1.790000 -0.042579 -0.042579 -0.104735 -0.000290
1.791000 -0.041613 -0.041613 -0.114647 -0.000288
1.792000 -0.064302 -0.064302 -0.081621 -0.000280
1.793000 -0.014261 -0.014261 -0.091495 -0.000286
1.794000 -0.021514 -0.021514 -0.054900 -0.000270
1.795000 -0.039091 -0.039091 -0.065463 -0.000286
1.796000 -0.026617 -0.026617 -0.060916 -0.000241
1.797000 -0.087989 -0.087989 -0.014818 -0.000261
1.798000 -0.077713 -0.077713 0.001615 -0.000256
1.799000 -0.101196 -0.101196 0.028322 -0.000260
1.800000 -0.151296 -0.151296 0.025555 -0.000270
1.801000 -0.120928 -0.120928 0.059816 -0.000268
1.802000 -0.148422 -0.148422 0.116344 -0.000300
1.803000 -0.168186 -0.168186 0.134106 -0.000297
1.804000 -0.129643 -0.129643 0.123892 -0.000274
1.805000 -0.158968 -0.158968 0.079330 -0.000284
1.806000 -0.143265 -0.143265 0.053294 -0.000293
1.807000 -0.106442 -0.106442 0.076719 -0.000296
1.808000 -0.159925 -0.159925 0.025189 -0.000220
1.809000 -0.093810 -0.093810 -0.060618 -0.000287
1.810000 -0.115898 -0.115898 -0.093150 -0.000269
1.811000 -0.134344 -0.134344 -0.144874 -0.000257
1.812000 -0.060668 -0.060668 -0.099702 -0.000257
1.813000 -0.090175 -0.090175 -0.086075 -0.000271
1.814000 -0.111232 -0.111232 -0.097295 -0.000275
1.815000 -0.068956 -0.068956 -0.075108 -0.000267
1.816000 -0.127325 -0.127325 -0.043126 -0.000279
1.817000 -0.110393 -0.110393 -0.036687 -0.000254
1.818000 -0.095636 -0.095636 -0.026298 -0.000267
1.819000 -0.159893 -0.159893 0.013000 -0.000256
1.820000 -0.131414 -0.131414 0.013565 -0.000269
1.821000 -0.153479 -0.153479 0.029922 -0.000270
1.822000 -0.212525 -0.212525 0.064207 -0.000285
1.823000 -0.166052 -0.166052 0.066279 -0.000290
1.824000 -0.221304 -0.221304 0.103342 -0.000304
1.825000 -0.192207 -0.192207 0.074943 -0.000298
1.826000 -0.160880 -0.160880 0.033453 -0.000242
1.827000 -0.207320 -0.207320 0.030556 -0.000302
1.828000 -0.170360 -0.170360 -0.030100 -0.000267
1.829000 -0.142440 -0.142440 -0.034125 -0.000260
1.830000 -0.147827 -0.147827 -0.086574 -0.000250
1.831000 -0.122395 -0.122395 -0.093253 -0.000272
1.832000 -0.140633 -0.140633 -0.089158 -0.000267
1.833000 -0.121534 -0.121534 -0.123432 -0.000280
1.834000 -0.090705 -0.090705 -0.121613 -0.000278
1.835000 -0.145908 -0.145908 -0.099372 -0.000267
1.836000 -0.106991 -0.106991 -0.091441 -0.000267
1.837000 -0.123123 -0.123123 -0.063621 -0.000282
1.838000 -0.164496 -0.164496 -0.003390 -0.000260
1.839000 -0.153592 -0.153592 -0.001216 -0.000276
1.840000 -0.176548 -0.176548 0.027910 -0.000292
1.841000 -0.183238 -0.183238 0.049125 -0.000259
1.842000 -0.163556 -0.163556 0.061370 -0.000284
1.843000 -0.203187 -0.203187 0.067997 -0.000254
1.844000 -0.179046 -0.179046 0.056936 -0.000289
1.845000 -0.166081 -0.166081 0.044093 -0.000282
1.846000 -0.199891 -0.199891 0.036001 -0.000282
1.847000 -0.153208 -0.153208 -0.008127 -0.000308
1.848000 -0.172440 -0.172440 -0.037604 -0.000267
1.849000 -0.180658 -0.180658 -0.044369 -0.000249
1.850000 -0.101748 -0.101748 -0.089899 -0.000273
1.851000 -0.142898 -0.142898 -0.075458 -0.000270
1.852000 -0.122931 -0.122931 -0.118047 -0.000271
1.853000 -0.098597 -0.098597 -0.113286 -0.000294
1.854000 -0.141839 -0.141839 -0.094478 -0.000269
1.855000 -0.112260 -0.112260 -0.080710 -0.000304
1.856000 -0.109405 -0.109405 -0.089779 -0.000296
1.857000 -0.158448 -0.158448 -0.037767 -0.000278
1.858000 -0.128326 -0.128326 0.001834 -0.000270
1.859000 -0.178117 -0.178117 0.024905 -0.000284
1.860000 -0.199994 -0.199994 0.011998 -0.000311
1.861000 -0.169026 -0.169026 0.032371 -0.000303
1.862000 -0.241709 -0.241709 0.058635 -0.000255
1.863000 -0.211218 -0.211218 0.063186 -0.000285
1.864000 -0.188222 -0.188222 0.089111 -0.000288
1.865000 -0.234343 -0.234343 0.071214 -0.000281
1.866000 -0.200504 -0.200504 0.039707 -0.000301
1.867000 -0.194306 -0.194306 0.031318 -0.000315
1.868000 -0.211637 -0.211637 -0.029530 -0.000274
1.869000 -0.153973 -0.153973 -0.054623 -0.000307
1.870000 -0.171390 -0.171390 -0.079779 -0.000261
1.871000 -0.150741 -0.150741 -0.137336 -0.000266
1.872000 -0.109136 -0.109136 -0.135104 -0.000282
1.873000 -0.150962 -0.150962 -0.117202 -0.000314
1.874000 -0.130590 -0.130590 -0.114566 -0.000288
1.875000 -0.136335 -0.136335 -0.085591 -0.000291
1.876000 -0.172103 -0.172103 -0.087346 -0.000254
1.877000 -0.134768 -0.134768 -0.064353 -0.000264
1.878000 -0.145139 -0.145139 -0.015658 -0.000283
1.879000 -0.187012 -0.187012 -0.002371 -0.000274
1.880000 -0.162675 -0.162675 0.030304 -0.000265
1.881000 -0.212695 -0.212695 0.080569 -0.000302
1.882000 -0.208402 -0.208402 0.082371 -0.000275
1.883000 -0.198579 -0.198579 0.074649 -0.000263
1.884000 -0.235137 -0.235137 0.072107 -0.000305
1.885000 -0.183316 -0.183316 0.038169 -0.000255
1.886000 -0.192601 -0.192601 0.016689 -0.000252
1.887000 -0.203766 -0.203766 -0.013108 -0.000280
1.888000 -0.162803 -0.162803 -0.021779 -0.000276
1.889000 -0.171371 -0.171371 -0.049287 -0.000307
1.890000 -0.125666 -0.125666 -0.096035 -0.000272
1.891000 -0.085503 -0.085503 -0.128949 -0.000266
1.892000 -0.125541 -0.125541 -0.107256 -0.000317
1.893000 -0.100073 -0.100073 -0.106436 -0.000298
1.894000 -0.097730 -0.097730 -0.101981 -0.000284
1.895000 -0.141903 -0.141903 -0.061989 -0.000278
1.896000 -0.088512 -0.088512 -0.020932 -0.000266
1.897000 -0.156214 -0.156214 -0.027548 -0.000267
1.898000 -0.152537 -0.152537 -0.015248 -0.000255
1.899000 -0.153197 -0.153197 -0.008549 -0.000282
1.900000 -0.207818 -0.207818 0.025525 -0.000285
1.901000 -0.195134 -0.195134 0.083043 -0.000284
1.902000 -0.189511 -0.189511 0.126719 -0.000261
1.903000 -0.262762 -0.262762 0.111598 -0.000295
1.904000 -0.210266 -0.210266 0.099251 -0.000296
1.905000 -0.238442 -0.238442 0.048254 -0.000273
1.906000 -0.235433 -0.235433 0.009392 -0.000300
1.907000 -0.174112 -0.174112 0.008116 -0.000311
1.908000 -0.217899 -0.217899 -0.039013 -0.000271
1.909000 -0.173213 -0.173213 -0.078483 -0.000276
1.910000 -0.131860 -0.131860 -0.111906 -0.000277
1.911000 -0.155257 -0.155257 -0.106025 -0.000256
1.912000 -0.109726 -0.109726 -0.117792 -0.000269
1.913000 -0.114137 -0.114137 -0.093495 -0.000316
1.914000 -0.157503 -0.157503 -0.118311 -0.000269
1.915000 -0.113237 -0.113237 -0.147341 -0.000261
1.916000 -0.133696 -0.133696 -0.102126 -0.000270
1.917000 -0.151153 -0.151153 -0.075167 -0.000303
1.918000 -0.118240 -0.118240 0.025966 -0.000288
1.919000 -0.182113 -0.182113 0.020972 -0.000287
1.920000 -0.176466 -0.176466 0.070052 -0.000308
1.921000 -0.177369 -0.177369 0.116470 -0.000290
1.922000 -0.228415 -0.228415 0.071070 -0.000272
1.923000 -0.171808 -0.171808 0.043829 -0.000269
1.924000 -0.191528 -0.191528 0.061362 -0.000324
1.925000 -0.175372 -0.175372 0.029058 -0.000298
1.926000 -0.125192 -0.125192 0.005125 -0.000283
1.927000 -0.104253 -0.104253 -0.020565 -0.000261
1.928000 -0.074402 -0.074402 -0.088264 -0.000290
1.929000 -0.004699 -0.004699 -0.089601 -0.000253
1.930000 -0.031159 -0.031159 -0.123904 -0.000264
1.931000 -0.022737 -0.022737 -0.147938 -0.000271
1.932000 0.008103 0.008103 -0.108267 -0.000272
1.933000 -0.045415 -0.045415 -0.073903 -0.000264
1.934000 0.011532 0.011532 -0.113092 -0.000277
1.935000 -0.022982 -0.022982 -0.099224 -0.000302
1.936000 -0.053326 -0.053326 -0.057709 -0.000290
1.937000 -0.029389 -0.029389 -0.032273 -0.000264
1.938000 -0.081746 -0.081746 0.043186 -0.000280
1.939000 -0.081200 -0.081200 0.009558 -0.000266
1.940000 -0.078390 -0.078390 0.031371 -0.000311
1.941000 -0.121075 -0.121075 0.084821 -0.000274
1.942000 -0.111481 -0.111481 0.078999 -0.000297
1.943000 -0.101389 -0.101389 0.086934 -0.000278
1.944000 -0.139074 -0.139074 0.050617 -0.000277
1.945000 -0.073585 -0.073585 0.004295 -0.000271
1.946000 -0.116484 -0.116484 0.023733 -0.000261
1.947000 -0.089250 -0.089250 0.035655 -0.000287
1.948000 -0.055492 -0.055492 -0.023507 -0.000295
1.949000 -0.059734 -0.059734 -0.063530 -0.000262
1.950000 -0.032552 -0.032552 -0.109085 -0.000281
1.951000 -0.008652 -0.008652 -0.150549 -0.000273
1.952000 -0.028387 -0.028387 -0.169748 -0.000292
1.953000 0.012318 0.012318 -0.166211 -0.000260
1.954000 -0.004063 -0.004063 -0.166370 -0.000285
1.955000 -0.033217 -0.033217 -0.139638 -0.000269
1.956000 -0.010141 -0.010141 -0.113527 -0.000291
1.957000 -0.069760 -0.069760 -0.064733 -0.000276
1.958000 -0.068529 -0.068529 -0.035158 -0.000260
1.959000 -0.084084 -0.084084 -0.004775 -0.000273
1.960000 -0.133439 -0.133439 0.048095 -0.000256
1.961000 -0.126549 -0.126549 0.082297 -0.000289
1.962000 -0.143952 -0.143952 0.092376 -0.000262
1.963000 -0.172970 -0.172970 0.099516 -0.000294
1.964000 -0.119934 -0.119934 0.042071 -0.000276
1.965000 -0.146339 -0.146339 0.012083 -0.000308
1.966000 -0.118503 -0.118503 -0.000406 -0.000284
1.967000 -0.090755 -0.090755 0.006311 -0.000314
1.968000 -0.129229 -0.129229 -0.023101 -0.000257
1.969000 -0.060041 -0.060041 -0.083335 -0.000276
1.970000 -0.026359 -0.026359 -0.067023 -0.000273
1.971000 -0.042426 -0.042426 -0.114422 -0.000295
1.972000 0.004856 0.004856 -0.137790 -0.000286
1.973000 -0.017073 -0.017073 -0.163539 -0.000275
1.974000 -0.039559 -0.039559 -0.181735 -0.000293
1.975000 -0.000039 -0.000039 -0.128368 -0.000305
1.976000 -0.049913 -0.049913 -0.093714 -0.000281
1.977000 -0.050947 -0.050947 -0.078314 -0.000284
1.978000 -0.035005 -0.035005 -0.045204 -0.000274
1.979000 -0.104525 -0.104525 -0.030106 -0.000291
1.980000 -0.088621 -0.088621 -0.003696 -0.000286
1.981000 -0.114506 -0.114506 0.049781 -0.000278
1.982000 -0.137442 -0.137442 0.061677 -0.000316
1.983000 -0.116682 -0.116682 0.047524 -0.000282
1.984000 -0.133700 -0.133700 0.051325 -0.000263
1.985000 -0.126316 -0.126316 0.019032 -0.000285
1.986000 -0.074638 -0.074638 0.008732 -0.000278
1.987000 -0.099621 -0.099621 0.006707 -0.000227
1.988000 -0.060641 -0.060641 -0.060558 -0.000297
1.989000 -0.043517 -0.043517 -0.065497 -0.000298
1.990000 -0.061163 -0.061163 -0.098909 -0.000275
1.991000 -0.013761 -0.013761 -0.144759 -0.000289
1.992000 -0.019394 -0.019394 -0.116187 -0.000300
1.993000 -0.030899 -0.030899 -0.124037 -0.000277
1.994000 0.016294 0.016294 -0.124528 -0.000269
1.995000 -0.043061 -0.043061 -0.070271 -0.000291
1.996000 -0.064212 -0.064212 -0.066694 -0.000295
1.997000 -0.048013 -0.048013 -0.081110 -0.000280
1.998000 -0.095944 -0.095944 -0.053690 -0.000288
1.999000 -0.100906 -0.100906 -0.004820 -0.000277
2.000000 -0.098981 -0.098981 0.065029 -0.000277
2.001000 -0.141353 -0.141353 0.097713 -0.000288
2.002000 -0.117643 -0.117643 0.058172 -0.000280
2.003000 -0.132050 -0.132050 0.062608 -0.000297
2.004000 -0.147304 -0.147304 0.076062 -0.000307
2.005000 -0.112148 -0.112148 0.074597 -0.000267
2.006000 -0.146930 -0.146930 0.059884 -0.000291
2.007000 -0.107198 -0.107198 0.034672 -0.000265
2.008000 -0.076670 -0.076670 -0.035016 -0.000278
2.009000 -0.102159 -0.102159 -0.041139 -0.000302
2.010000 -0.056057 -0.056057 -0.111072 -0.000267
2.011000 -0.050248 -0.050248 -0.153568 -0.000282
2.012000 -0.064828 -0.064828 -0.171243 -0.000298
2.013000 -0.029875 -0.029875 -0.137740 -0.000261
2.014000 -0.045196 -0.045196 -0.106837 -0.000314
2.015000 -0.055979 -0.055979 -0.059369 -0.000263
2.016000 -0.031868 -0.031868 -0.035355 -0.000267
2.017000 -0.099808 -0.099808 -0.015431 -0.000262
2.018000 -0.074166 -0.074166 0.014034 -0.000279
2.019000 -0.103939 -0.103939 0.028219 -0.000268
2.020000 -0.139408 -0.139408 0.042132 -0.000270
2.021000 -0.098439 -0.098439 0.076868 -0.000299
2.022000 -0.142063 -0.142063 0.090487 -0.000297
2.023000 -0.155885 -0.155885 0.067899 -0.000262
2.024000 -0.104743 -0.104743 0.065578 -0.000253
2.025000 -0.123768 -0.123768 0.019788 -0.000283
2.026000 -0.100173 -0.100173 -0.006871 -0.000286
2.027000 -0.078688 -0.078688 -0.015473 -0.000273
2.028000 -0.097078 -0.097078 -0.066710 -0.000303
2.029000 -0.053372 -0.053372 -0.083395 -0.000293
2.030000 -0.057985 -0.057985 -0.090681 -0.000283
2.031000 -0.042474 -0.042474 -0.138547 -0.000276
2.032000 -0.004034 -0.004034 -0.103026 -0.000292
2.033000 -0.043613 -0.043613 -0.080857 -0.000280
2.034000 -0.046466 -0.046466 -0.138478 -0.000272
2.035000 -0.031199 -0.031199 -0.137376 -0.000272
2.036000 -0.073679 -0.073679 -0.088619 -0.000228
2.037000 -0.052309 -0.052309 -0.082871 -0.000273
2.038000 -0.066816 -0.066816 -0.021451 -0.000289
2.039000 -0.110493 -0.110493 -0.009984 -0.000290
2.040000 -0.076544 -0.076544 -0.004157 -0.000306
2.041000 -0.118987 -0.118987 0.053007 -0.000255
2.042000 -0.138275 -0.138275 0.032249 -0.000291
2.043000 -0.105827 -0.105827 0.017165 -0.000266
2.044000 -0.159914 -0.159914 0.049646 -0.000297
2.045000 -0.131834 -0.131834 0.014469 -0.000278
2.046000 -0.122479 -0.122479 0.006804 -0.000301
2.047000 -0.147338 -0.147338 -0.061424 -0.000292
2.048000 -0.089456 -0.089456 -0.105002 -0.000257
2.049000 -0.087598 -0.087598 -0.088931 -0.000299
2.050000 -0.094304 -0.094304 -0.136570 -0.000285
2.051000 -0.044289 -0.044289 -0.150400 -0.000276
2.052000 -0.075264 -0.075264 -0.169942 -0.000265
2.053000 -0.054496 -0.054496 -0.181394 -0.000295
2.054000 -0.032099 -0.032099 -0.191665 -0.000256
2.055000 -0.069485 -0.069485 -0.162155 -0.000272
2.056000 -0.043264 -0.043264 -0.144686 -0.000280
2.057000 -0.072830 -0.072830 -0.107032 -0.000265
2.058000 -0.111995 -0.111995 -0.058093 -0.000262
2.059000 -0.086640 -0.086640 -0.058887 -0.000259
2.060000 -0.130585 -0.130585 -0.015845 -0.000282
2.061000 -0.155521 -0.155521 -0.002066 -0.000254
2.062000 -0.134025 -0.134025 0.018875 -0.000288
2.063000 -0.183103 -0.183103 0.027843 -0.000275
2.064000 -0.163647 -0.163647 0.015580 -0.000254
2.065000 -0.163841 -0.163841 0.024383 -0.000289
2.066000 -0.181627 -0.181627 -0.009117 -0.000282
2.067000 -0.125181 -0.125181 -0.031775 -0.000304
2.068000 -0.128173 -0.128173 -0.094106 -0.000282
2.069000 -0.121996 -0.121996 -0.143441 -0.000287
2.070000 -0.071188 -0.071188 -0.172167 -0.000298
2.071000 -0.084638 -0.084638 -0.186812 -0.000290
2.072000 -0.071688 -0.071688 -0.151044 -0.000295
2.073000 -0.035526 -0.035526 -0.106802 -0.000270
2.074000 -0.101002 -0.101002 -0.145299 -0.000251
2.075000 -0.066140 -0.066140 -0.174275 -0.000276
2.076000 -0.085826 -0.085826 -0.077737 -0.000297
2.077000 -0.127082 -0.127082 -0.072944 -0.000278
2.078000 -0.087028 -0.087028 -0.055673 -0.000253
2.079000 -0.145786 -0.145786 -0.057760 -0.000296
2.080000 -0.182160 -0.182160 -0.026574 -0.000279
2.081000 -0.159584 -0.159584 0.055873 -0.000268
2.082000 -0.209814 -0.209814 0.051590 -0.000284
2.083000 -0.168757 -0.168757 0.011757 -0.000270
2.084000 -0.162105 -0.162105 0.001348 -0.000264
2.085000 -0.199372 -0.199372 -0.021376 -0.000280
2.086000 -0.143081 -0.143081 -0.037562 -0.000294
2.087000 -0.128949 -0.128949 -0.057375 -0.000283
2.088000 -0.140536 -0.140536 -0.124682 -0.000297
2.089000 -0.086794 -0.086794 -0.139421 -0.000265
2.090000 -0.107819 -0.107819 -0.147624 -0.000293
2.091000 -0.086017 -0.086017 -0.178506 -0.000297
2.092000 -0.053066 -0.053066 -0.179189 -0.000256
2.093000 -0.093423 -0.093423 -0.167604 -0.000270
2.094000 -0.057725 -0.057725 -0.188120 -0.000283
2.095000 -0.071072 -0.071072 -0.145903 -0.000273
2.096000 -0.110964 -0.110964 -0.128360 -0.000307
2.097000 -0.051073 -0.051073 -0.141241 -0.000311
2.098000 -0.107001 -0.107001 -0.065001 -0.000276
2.099000 -0.141494 -0.141494 -0.048735 -0.000260
2.100000 -0.132750 -0.132750 -0.022858 -0.000273
2.101000 -0.187749 -0.187749 0.034750 -0.000288
2.102000 -0.197612 -0.197612 0.042921 -0.000283
2.103000 -0.168226 -0.168226 0.035428 -0.000287
2.104000 -0.210513 -0.210513 0.056401 -0.000266
2.105000 -0.148364 -0.148364 -0.013544 -0.000288
2.106000 -0.159391 -0.159391 -0.035253 -0.000305
2.107000 -0.157286 -0.157286 -0.055350 -0.000291
2.108000 -0.111532 -0.111532 -0.106285 -0.000257
2.109000 -0.127315 -0.127315 -0.086365 -0.000300
2.110000 -0.075915 -0.075915 -0.143956 -0.000245
2.111000 -0.046756 -0.046756 -0.194953 -0.000298
2.112000 -0.072261 -0.072261 -0.191234 -0.000270
2.113000 -0.024098 -0.024098 -0.205700 -0.000287
2.114000 -0.062967 -0.062967 -0.189203 -0.000308
2.115000 -0.106047 -0.106047 -0.151839 -0.000282
2.116000 -0.063250 -0.063250 -0.121171 -0.000293
2.117000 -0.096988 -0.096988 -0.099007 -0.000253
2.118000 -0.120816 -0.120816 -0.062580 -0.000270
2.119000 -0.100789 -0.100789 -0.034094 -0.000276
2.120000 -0.154526 -0.154526 -0.008518 -0.000280
2.121000 -0.164732 -0.164732 0.018593 -0.000281
2.122000 -0.161730 -0.161730 0.008012 -0.000291
2.123000 -0.212292 -0.212292 -0.004666 -0.000304
2.124000 -0.165926 -0.165926 0.007197 -0.000271
2.125000 -0.168463 -0.168463 -0.021102 -0.000307
2.126000 -0.176865 -0.176865 -0.051098 -0.000300
2.127000 -0.137219 -0.137219 -0.079677 -0.000296
2.128000 -0.180624 -0.180624 -0.108435 -0.000282
2.129000 -0.137366 -0.137366 -0.173306 -0.000272
2.130000 -0.115203 -0.115203 -0.192443 -0.000305
2.131000 -0.114700 -0.114700 -0.241696 -0.000263
2.132000 -0.069471 -0.069471 -0.259946 -0.000258
2.133000 -0.082396 -0.082396 -0.243761 -0.000256
2.134000 -0.102148 -0.102148 -0.252661 -0.000241
2.135000 -0.092053 -0.092053 -0.237820 -0.000268
2.136000 -0.117347 -0.117347 -0.188684 -0.000274
2.137000 -0.106347 -0.106347 -0.150524 -0.000278
2.138000 -0.086052 -0.086052 -0.103557 -0.000297
2.139000 -0.146245 -0.146245 -0.107891 -0.000283
2.140000 -0.096161 -0.096161 -0.104674 -0.000269
2.141000 -0.093201 -0.093201 -0.074443 -0.000305
2.142000 -0.124478 -0.124478 -0.045838 -0.000287
2.143000 -0.063592 -0.063592 -0.078371 -0.000264
2.144000 -0.085956 -0.085956 -0.021997 -0.000293
2.145000 -0.088756 -0.088756 -0.033484 -0.000258
2.146000 -0.001318 -0.001318 -0.081990 -0.000256
2.147000 -0.007405 -0.007405 -0.039220 -0.000250
2.148000 0.033279 0.033279 -0.104861 -0.000304
2.149000 0.107677 0.107677 -0.104319 -0.000296
2.150000 0.107493 0.107493 -0.115780 -0.000269
2.151000 0.194681 0.194681 -0.127709 -0.000246
2.152000 0.195615 0.195615 -0.103039 -0.000264
2.153000 0.192604 0.192604 -0.084475 -0.000285
2.154000 0.241748 0.241748 -0.017114 -0.000277
2.155000 0.179708 0.179708 0.151128 -0.000268
2.156000 0.187092 0.187092 0.200150 -0.000253
2.157000 0.174661 0.174661 0.311125 -0.000277
2.158000 0.126000 0.126000 0.401496 -0.000286
2.159000 0.097283 0.097283 0.458786 -0.000277
2.160000 0.064778 0.064778 0.479467 -0.000301
2.161000 -0.023214 -0.023214 0.515329 -0.000259
2.162000 -0.012064 -0.012064 0.477553 -0.000272
2.163000 -0.064478 -0.064478 0.441872 -0.000289
2.164000 -0.112481 -0.112481 0.390422 -0.000276
2.165000 -0.085945 -0.085945 0.326210 -0.000290
2.166000 -0.140148 -0.140148 0.328618 -0.000295
2.167000 -0.145816 -0.145816 0.307397 -0.000309
2.168000 -0.112674 -0.112674 0.268617 -0.000272
2.169000 -0.137113 -0.137113 0.203307 -0.000295
2.170000 -0.094105 -0.094105 0.151629 -0.000274
2.171000 -0.062462 -0.062462 0.102382 -0.000284
2.172000 -0.091649 -0.091649 0.068827 -0.000276
2.173000 -0.046281 -0.046281 0.024314 -0.000262
2.174000 -0.095410 -0.095410 0.031736 -0.000316
2.175000 -0.125985 -0.125985 0.006293 -0.000282
2.176000 -0.099081 -0.099081 0.029096 -0.000271
2.177000 -0.151016 -0.151016 0.075988 -0.000282
2.178000 -0.170330 -0.170330 0.089148 -0.000255
2.179000 -0.157134 -0.157134 0.078920 -0.000253
2.180000 -0.192489 -0.192489 0.104482 -0.000270
2.181000 -0.173023 -0.173023 0.090720 -0.000259
2.182000 -0.183094 -0.183094 0.087436 -0.000256
2.183000 -0.208739 -0.208739 0.047662 -0.000238
2.184000 -0.150101 -0.150101 0.038093 -0.000300
2.185000 -0.142629 -0.142629 0.018030 -0.000283
2.186000 -0.095850 -0.095850 -0.047497 -0.000280
2.187000 -0.066172 -0.066172 -0.030989 -0.000299
2.188000 -0.104071 -0.104071 -0.077294 -0.000300
2.189000 -0.043862 -0.043862 -0.121963 -0.000283
2.190000 -0.019488 -0.019488 -0.151569 -0.000241
2.191000 -0.015153 -0.015153 -0.179955 -0.000276
2.192000 0.038974 0.038974 -0.190743 -0.000293
2.193000 0.017403 0.017403 -0.135211 -0.000275
2.194000 0.020712 0.020712 -0.161760 -0.000283
2.195000 0.028718 0.028718 -0.135234 -0.000290
2.196000 -0.044331 -0.044331 -0.121350 -0.000297
2.197000 -0.035558 -0.035558 -0.096271 -0.000257
2.198000 -0.053883 -0.053883 -0.000749 -0.000287
2.199000 -0.116702 -0.116702 0.006256 -0.000250
2.200000 -0.077158 -0.077158 0.018427 -0.000238
2.201000 -0.118852 -0.118852 0.030762 -0.000290
2.202000 -0.113175 -0.113175 -0.009147 -0.000260
2.203000 -0.076232 -0.076232 0.000390 -0.000267
2.204000 -0.104732 -0.104732 0.013855 -0.000322
2.205000 -0.095946 -0.095946 -0.027608 -0.000280
2.206000 -0.051010 -0.051010 -0.026947 -0.000282
2.207000 -0.100501 -0.100501 -0.031272 -0.000287
2.208000 -0.050657 -0.050657 -0.088839 -0.000287
2.209000 -0.047781 -0.047781 -0.102792 -0.000314
2.210000 -0.055390 -0.055390 -0.145101 -0.000258
2.211000 0.040934 0.040934 -0.193407 -0.000295
2.212000 0.003243 0.003243 -0.191947 -0.000296
2.213000 0.002550 0.002550 -0.186875 -0.000288
2.214000 0.022299 0.022299 -0.189684 -0.000287
2.215000 -0.018214 -0.018214 -0.167133 -0.000273
2.216000 -0.013658 -0.013658 -0.138300 -0.000271
2.217000 -0.012553 -0.012553 -0.106478 -0.000298
2.218000 -0.077731 -0.077731 -0.048599 -0.000275
2.219000 -0.065475 -0.065475 -0.036117 -0.000259
2.220000 -0.086169 -0.086169 -0.007373 -0.000320
2.221000 -0.118162 -0.118162 0.004680 -0.000279
2.222000 -0.096913 -0.096913 0.021631 -0.000294
2.223000 -0.150406 -0.150406 0.046251 -0.000282
2.224000 -0.117337 -0.117337 0.036843 -0.000308
2.225000 -0.062305 -0.062305 0.013538 -0.000291
2.226000 -0.086095 -0.086095 -0.020279 -0.000263
2.227000 -0.049854 -0.049854 -0.056572 -0.000301
2.228000 -0.011154 -0.011154 -0.098725 -0.000281
2.229000 -0.009625 -0.009625 -0.136113 -0.000295
2.230000 0.033060 0.033060 -0.178561 -0.000329
2.231000 0.014962 0.014962 -0.182736 -0.000290
2.232000 0.029933 0.029933 -0.176531 -0.000307
2.233000 0.048012 0.048012 -0.134813 -0.000249
2.234000 0.002188 0.002188 -0.160582 -0.000287
2.235000 0.014497 0.014497 -0.166087 -0.000282
2.236000 0.017222 0.017222 -0.147291 -0.000266
2.237000 -0.050062 -0.050062 -0.124304 -0.000270
2.238000 -0.043726 -0.043726 -0.091813 -0.000261
2.239000 -0.075686 -0.075686 -0.024132 -0.000261
2.240000 -0.087760 -0.087760 -0.004789 -0.000302
2.241000 -0.067441 -0.067441 0.046773 -0.000301
2.242000 -0.104930 -0.104930 0.063244 -0.000267
2.243000 -0.078066 -0.078066 0.000009 -0.000282
2.244000 -0.063122 -0.063122 -0.042584 -0.000289
2.245000 -0.098910 -0.098910 -0.056871 -0.000290
2.246000 -0.063438 -0.063438 -0.109479 -0.000279
2.247000 -0.045840 -0.045840 -0.077556 -0.000286
2.248000 -0.043535 -0.043535 -0.114294 -0.000319
2.249000 0.001024 0.001024 -0.132507 -0.000236
2.250000 -0.021884 -0.021884 -0.156883 -0.000257
2.251000 0.018792 0.018792 -0.159769 -0.000292
2.252000 0.073521 0.073521 -0.197586 -0.000295
2.253000 0.031709 0.031709 -0.202039 -0.000284
2.254000 0.031167 0.031167 -0.215404 -0.000285
2.255000 0.017117 0.017117 -0.162794 -0.000303
2.256000 -0.016817 -0.016817 -0.115938 -0.000264
2.257000 0.004559 0.004559 -0.071614 -0.000248
2.258000 -0.031907 -0.031907 -0.023406 -0.000312
2.259000 -0.045763 -0.045763 -0.017338 -0.000272
2.260000 -0.027868 -0.027868 -0.035271 -0.000260
2.261000 -0.104229 -0.104229 -0.011170 -0.000267
2.262000 -0.084647 -0.084647 -0.036834 -0.000293
2.263000 -0.071309 -0.071309 -0.016944 -0.000267
2.264000 -0.106999 -0.106999 0.049738 -0.000293
2.265000 -0.052450 -0.052450 0.023017 -0.000291
2.266000 -0.043146 -0.043146 -0.041400 -0.000289
2.267000 -0.054002 -0.054002 -0.091039 -0.000292
2.268000 0.021820 0.021820 -0.115632 -0.000256
2.269000 -0.003149 -0.003149 -0.134322 -0.000273
2.270000 0.011193 0.011193 -0.220786 -0.000266
2.271000 0.060485 0.060485 -0.255897 -0.000278
2.272000 0.011835 0.011835 -0.217572 -0.000238
2.273000 0.043764 0.043764 -0.212404 -0.000304
2.274000 0.056810 0.056810 -0.189224 -0.000311
2.275000 -0.001012 -0.001012 -0.166696 -0.000268
2.276000 0.023449 0.023449 -0.131877 -0.000280
2.277000 -0.016863 -0.016863 -0.099538 -0.000267
2.278000 -0.066909 -0.066909 -0.102704 -0.000272
2.279000 -0.037570 -0.037570 -0.083537 -0.000255
2.280000 -0.086156 -0.086156 -0.032387 -0.000306
2.281000 -0.092902 -0.092902 -0.017478 -0.000260
2.282000 -0.057919 -0.057919 0.020605 -0.000286
2.283000 -0.100216 -0.100216 0.032880 -0.000255
2.284000 -0.057578 -0.057578 0.010418 -0.000305
2.285000 -0.043751 -0.043751 -0.001600 -0.000275
2.286000 -0.057078 -0.057078 -0.054502 -0.000267
2.287000 0.003303 0.003303 -0.111724 -0.000284
2.288000 0.011214 0.011214 -0.138088 -0.000283
2.289000 0.017580 0.017580 -0.152903 -0.000291
2.290000 0.053359 0.053359 -0.166317 -0.000269
2.291000 0.036847 0.036847 -0.176670 -0.000268
2.292000 0.054217 0.054217 -0.172533 -0.000301
2.293000 0.063878 0.063878 -0.155240 -0.000263
2.294000 0.032133 0.032133 -0.208580 -0.000273
2.295000 0.079290 0.079290 -0.186320 -0.000292
2.296000 0.024990 0.024990 -0.120546 -0.000287
2.297000 -0.022316 -0.022316 -0.117370 -0.000265
2.298000 -0.012542 -0.012542 -0.058589 -0.000301
2.299000 -0.064081 -0.064081 -0.012458 -0.000285
2.300000 -0.062734 -0.062734 -0.013625 -0.000244
2.301000 -0.049832 -0.049832 -0.006940 -0.000300
2.302000 -0.085337 -0.085337 -0.016733 -0.000306
2.303000 -0.072130 -0.072130 -0.010147 -0.000281
2.304000 -0.043929 -0.043929 -0.008027 -0.000277
2.305000 -0.067965 -0.067965 -0.042439 -0.000298
2.306000 -0.026961 -0.026961 -0.067413 -0.000276
2.307000 -0.018360 -0.018360 -0.068591 -0.000296
2.308000 -0.011191 -0.011191 -0.129348 -0.000310
2.309000 0.056167 0.056167 -0.147174 -0.000265
2.310000 0.028761 0.028761 -0.165186 -0.000271
2.311000 0.066834 0.066834 -0.201615 -0.000295
2.312000 0.102766 0.102766 -0.199759 -0.000280
2.313000 0.050504 0.050504 -0.196226 -0.000272
2.314000 0.077255 0.077255 -0.192102 -0.000283
2.315000 0.058254 0.058254 -0.149177 -0.000266
2.316000 0.021338 0.021338 -0.145255 -0.000289
2.317000 0.037690 0.037690 -0.116343 -0.000279
2.318000 -0.014780 -0.014780 -0.050314 -0.000327
2.319000 -0.041433 -0.041433 -0.049387 -0.000278
2.320000 -0.037023 -0.037023 -0.026056 -0.000260
2.321000 -0.083849 -0.083849 0.003941 -0.000253
2.322000 -0.076184 -0.076184 0.031111 -0.000289
2.323000 -0.042437 -0.042437 0.046505 -0.000296
2.324000 -0.071976 -0.071976 0.017311 -0.000296
2.325000 -0.022437 -0.022437 -0.032687 -0.000270
2.326000 -0.017899 -0.017899 -0.051495 -0.000252
2.327000 -0.014308 -0.014308 -0.080871 -0.000277
2.328000 0.039726 0.039726 -0.115408 -0.000275
2.329000 0.022888 0.022888 -0.114399 -0.000250
2.330000 0.046472 0.046472 -0.151981 -0.000269
2.331000 0.095623 0.095623 -0.176544 -0.000297
2.332000 0.060805 0.060805 -0.168221 -0.000282
2.333000 0.075295 0.075295 -0.193932 -0.000268
2.334000 0.073284 0.073284 -0.192971 -0.000288
2.335000 0.024142 0.024142 -0.144162 -0.000270
2.336000 0.065972 0.065972 -0.157365 -0.000286
2.337000 -0.005144 -0.005144 -0.121523 -0.000288
2.338000 -0.016888 -0.016888 -0.089982 -0.000275
2.339000 -0.008885 -0.008885 -0.069434 -0.000293
2.340000 -0.047430 -0.047430 -0.037624 -0.000279
2.341000 -0.042234 -0.042234 -0.026968 -0.000278
2.342000 -0.039384 -0.039384 0.000664 -0.000292
2.343000 -0.062807 -0.062807 -0.009131 -0.000251
2.344000 -0.021252 -0.021252 -0.023803 -0.000278
2.345000 -0.019599 -0.019599 -0.029015 -0.000278
2.346000 -0.008495 -0.008495 -0.069748 -0.000266
2.347000 0.032357 0.032357 -0.076876 -0.000272
2.348000 0.016770 0.016770 -0.109618 -0.000279
2.349000 0.042868 0.042868 -0.149545 -0.000283
2.350000 0.054712 0.054712 -0.164102 -0.000305
2.351000 0.044730 0.044730 -0.223233 -0.000271
2.352000 0.105459 0.105459 -0.238803 -0.000284
2.353000 0.089083 0.089083 -0.204824 -0.000270
2.354000 0.062713 0.062713 -0.168153 -0.000267
2.355000 0.080580 0.080580 -0.128571 -0.000294
2.356000 0.038801 0.038801 -0.099204 -0.000278
2.357000 0.033668 0.033668 -0.086715 -0.000258
2.358000 0.012179 0.012179 -0.067976 -0.000272
2.359000 -0.031322 -0.031322 -0.053583 -0.000296
2.360000 -0.008984 -0.008984 -0.039460 -0.000275
2.361000 -0.047377 -0.047377 -0.007694 -0.000281
2.362000 -0.074935 -0.074935 -0.002050 -0.000272
2.363000 -0.037583 -0.037583 -0.013280 -0.000295
2.364000 -0.052926 -0.052926 -0.010825 -0.000281
2.365000 -0.024317 -0.024317 -0.049094 -0.000307
2.366000 0.010476 0.010476 -0.061441 -0.000288
2.367000 -0.024033 -0.024033 -0.107384 -0.000315
2.368000 0.035664 0.035664 -0.175036 -0.000286
2.369000 0.065425 0.065425 -0.166727 -0.000278
2.370000 0.026631 0.026631 -0.167403 -0.000273
2.371000 0.082016 0.082016 -0.192560 -0.000310
2.372000 0.061843 0.061843 -0.173181 -0.000287
2.373000 0.050355 0.050355 -0.189519 -0.000283
2.374000 0.079275 0.079275 -0.204656 -0.000293
2.375000 0.025952 0.025952 -0.144711 -0.000275
2.376000 0.027397 0.027397 -0.144909 -0.000275
2.377000 0.042468 0.042468 -0.123178 -0.000252
2.378000 -0.029832 -0.029832 -0.064958 -0.000256
2.379000 -0.012072 -0.012072 -0.048664 -0.000302
2.380000 -0.022782 -0.022782 0.025497 -0.000263
2.381000 -0.068532 -0.068532 0.018600 -0.000269
2.382000 -0.026390 -0.026390 -0.045738 -0.000275
2.383000 -0.053493 -0.053493 -0.040543 -0.000255
2.384000 -0.054746 -0.054746 -0.056094 -0.000300
2.385000 0.001124 0.001124 -0.061516 -0.000273
2.386000 -0.034765 -0.034765 -0.055783 -0.000295
2.387000 -0.001011 -0.001011 -0.105468 -0.000313
2.388000 0.015954 0.015954 -0.098685 -0.000282
2.389000 0.000523 0.000523 -0.131516 -0.000277
2.390000 0.063019 0.063019 -0.200270 -0.000285
2.391000 0.070162 0.070162 -0.236470 -0.000302
2.392000 0.056806 0.056806 -0.269114 -0.000300
2.393000 0.079576 0.079576 -0.245853 -0.000279
2.394000 0.027504 0.027504 -0.206806 -0.000299
2.395000 0.038975 0.038975 -0.181585 -0.000278
2.396000 0.044060 0.044060 -0.113704 -0.000290
2.397000 -0.018065 -0.018065 -0.092106 -0.000279
2.398000 -0.001403 -0.001403 -0.087655 -0.000269
2.399000 -0.020889 -0.020889 -0.068846 -0.000275
2.400000 -0.065272 -0.065272 -0.026670 -0.000277
2.401000 -0.044808 -0.044808 0.021689 -0.000273
2.402000 -0.087418 -0.087418 0.012712 -0.000283
2.403000 -0.079341 -0.079341 -0.033830 -0.000267
2.404000 -0.034492 -0.034492 -0.058311 -0.000296
2.405000 -0.060560 -0.060560 -0.051762 -0.000260
2.406000 -0.031183 -0.031183 -0.080940 -0.000312
2.407000 -0.002057 -0.002057 -0.089726 -0.000275
2.408000 -0.019011 -0.019011 -0.146148 -0.000264
2.409000 0.035399 0.035399 -0.184819 -0.000296
2.410000 0.031228 0.031228 -0.156805 -0.000277
2.411000 0.045923 0.045923 -0.185919 -0.000304
2.412000 0.091859 0.091859 -0.198781 -0.000285
2.413000 0.044240 0.044240 -0.183257 -0.000301
2.414000 0.032539 0.032539 -0.171806 -0.000286
2.415000 0.043843 0.043843 -0.191116 -0.000288
2.416000 -0.008759 -0.008759 -0.159914 -0.000265
2.417000 0.006510 0.006510 -0.166416 -0.000276
2.418000 -0.029558 -0.029558 -0.108242 -0.000247
2.419000 -0.065979 -0.065979 -0.077464 -0.000273
2.420000 -0.029173 -0.029173 -0.059212 -0.000290
2.421000 -0.086935 -0.086935 -0.008292 -0.000274
2.422000 -0.074993 -0.074993 -0.037498 -0.000332
2.423000 -0.036125 -0.036125 -0.051426 -0.000282
2.424000 -0.063447 -0.063447 -0.046004 -0.000272
2.425000 -0.038389 -0.038389 -0.065672 -0.000279
2.426000 -0.007915 -0.007915 -0.065426 -0.000253
2.427000 -0.023240 -0.023240 -0.095167 -0.000284
2.428000 0.031856 0.031856 -0.143622 -0.000329
2.429000 0.048300 0.048300 -0.154141 -0.000289
2.430000 0.016756 0.016756 -0.215607 -0.000275
2.431000 0.074832 0.074832 -0.243887 -0.000277
2.432000 0.046540 0.046540 -0.207446 -0.000251
2.433000 0.033495 0.033495 -0.212473 -0.000254
2.434000 0.043363 0.043363 -0.208224 -0.000271
2.435000 0.002499 0.002499 -0.176562 -0.000291
2.436000 0.012187 0.012187 -0.167941 -0.000287
2.437000 -0.005823 -0.005823 -0.137622 -0.000253
2.438000 -0.058748 -0.058748 -0.100316 -0.000306
2.439000 -0.041876 -0.041876 -0.080576 -0.000306
2.440000 -0.081950 -0.081950 -0.052301 -0.000262
2.441000 -0.089526 -0.089526 -0.045438 -0.000279
2.442000 -0.058788 -0.058788 -0.051654 -0.000291
2.443000 -0.086076 -0.086076 -0.054449 -0.000283
2.444000 -0.068594 -0.068594 -0.076837 -0.000263
2.445000 -0.026191 -0.026191 -0.042781 -0.000286
2.446000 -0.051719 -0.051719 -0.079803 -0.000254
2.447000 0.012167 0.012167 -0.142271 -0.000273
2.448000 0.010540 0.010540 -0.181932 -0.000285
2.449000 0.009624 0.009624 -0.187675 -0.000263
2.450000 0.065199 0.065199 -0.211459 -0.000299
2.451000 0.055897 0.055897 -0.214737 -0.000262
2.452000 0.041110 0.041110 -0.232156 -0.000293
2.453000 0.059046 0.059046 -0.200947 -0.000286
2.454000 0.020166 0.020166 -0.174236 -0.000299
2.455000 0.023283 0.023283 -0.162417 -0.000264
2.456000 0.027124 0.027124 -0.154352 -0.000270
2.457000 -0.034649 -0.034649 -0.146078 -0.000296
2.458000 -0.021026 -0.021026 -0.102601 -0.000264
2.459000 -0.054820 -0.054820 -0.056266 -0.000281
2.460000 -0.059876 -0.059876 -0.047734 -0.000273
2.461000 -0.051691 -0.051691 -0.050262 -0.000229
2.462000 -0.084272 -0.084272 -0.069040 -0.000290
2.463000 -0.081525 -0.081525 -0.059148 -0.000281
2.464000 -0.051277 -0.051277 -0.045016 -0.000270
2.465000 -0.089601 -0.089601 -0.053315 -0.000295
2.466000 -0.052363 -0.052363 -0.099126 -0.000254
2.467000 -0.028133 -0.028133 -0.123095 -0.000303
2.468000 -0.023138 -0.023138 -0.204714 -0.000267
2.469000 0.050877 0.050877 -0.222288 -0.000242
2.470000 0.031405 0.031405 -0.181804 -0.000270
2.471000 0.043497 0.043497 -0.165687 -0.000267
2.472000 0.077623 0.077623 -0.210008 -0.000286
2.473000 0.040066 0.040066 -0.225628 -0.000260
2.474000 0.041912 0.041912 -0.231608 -0.000268
2.475000 0.050876 0.050876 -0.184611 -0.000258
2.476000 -0.002025 -0.002025 -0.161153 -0.000270
2.477000 0.007720 0.007720 -0.132407 -0.000260
2.478000 -0.019925 -0.019925 -0.103539 -0.000277
2.479000 -0.059168 -0.059168 -0.073157 -0.000304
2.480000 -0.030125 -0.030125 -0.043966 -0.000251
2.481000 -0.073890 -0.073890 -0.006459 -0.000266
2.482000 -0.094663 -0.094663 -0.034414 -0.000286
2.483000 -0.066199 -0.066199 -0.050988 -0.000278
2.484000 -0.092288 -0.092288 -0.022186 -0.000278
2.485000 -0.049507 -0.049507 -0.059826 -0.000270
2.486000 -0.010911 -0.010911 -0.101393 -0.000279
2.487000 -0.036989 -0.036989 -0.174883 -0.000284
2.488000 0.018169 0.018169 -0.223584 -0.000265
2.489000 0.032325 0.032325 -0.197510 -0.000283
2.490000 0.024648 0.024648 -0.196240 -0.000267
2.491000 0.079914 0.079914 -0.217483 -0.000270
2.492000 0.061723 0.061723 -0.231178 -0.000291
2.493000 0.074861 0.074861 -0.271829 -0.000294
2.494000 0.082899 0.082899 -0.246187 -0.000291
2.495000 0.025912 0.025912 -0.191828 -0.000293
2.496000 0.017238 0.017238 -0.179244 -0.000256
2.497000 -0.002160 -0.002160 -0.150602 -0.000279
